# OpenSignals Text File Format. Version 1
# {"98:D3:31:30:28:8D": {"position": 0, "device": "bitalino", "device name": "98:D3:31:30:28:8D", "device connection": "/dev/tty.bitalino-DevB", "sampling rate": 1000, "resolution": [4, 1, 1, 1, 1, 10, 10, 10, 10, 6, 6], "firmware version": 771, "comments": "40s recording simona with BITalino", "keywords": "", "mode": 0, "sync interval": 2, "date": "2021-9-23", "time": "18:44:21.55", "channels": [1, 2, 3, 4, 5, 6], "sensor": ["RAW", "RAW", "RAW", "RAW", "RAW", "RAW"], "label": ["A1", "A2", "A3", "A4", "A5", "A6"], "column": ["nSeq", "I1", "I2", "I3", "I4", "A1", "A2", "A3", "A4", "A5", "A6"], "special": [{}, {}, {}, {}, {}, {}], "digital IO": [0, 0, 0, 0, 1, 1, 1, 1]}}
# EndOfHeader
1	0	0	0	0	508	0	519	318	0	34	
2	0	0	0	0	508	0	526	318	0	35	
3	0	0	0	0	508	0	531	318	0	35	
4	0	0	0	0	508	0	536	318	0	35	
5	0	0	0	0	508	0	543	318	0	35	
6	0	0	0	0	508	0	547	318	0	35	
7	0	0	0	0	508	0	556	318	0	35	
8	0	0	0	0	508	0	560	318	0	35	
9	0	0	0	0	508	0	568	318	0	35	
10	0	0	0	0	508	0	574	318	0	35	
11	0	0	0	0	508	0	575	318	0	34	
12	0	0	0	0	508	0	583	318	0	35	
13	0	0	0	0	508	0	588	318	0	35	
14	0	0	0	0	508	0	591	318	0	35	
15	0	0	0	0	508	0	591	318	0	35	
0	0	0	0	0	508	0	595	318	0	34	
1	0	0	0	0	508	0	593	318	0	35	
2	0	0	0	0	508	0	591	318	0	34	
3	0	0	0	0	508	0	588	318	0	35	
4	0	0	0	0	508	0	583	318	0	35	
5	0	0	0	0	508	0	575	318	0	34	
6	0	0	0	0	508	0	568	318	0	34	
7	0	0	0	0	508	0	560	318	0	35	
8	0	0	0	0	508	0	551	318	0	34	
9	0	0	0	0	508	0	540	318	0	35	
10	0	0	0	0	508	0	526	318	0	34	
11	0	0	0	0	508	0	511	318	0	35	
12	0	0	0	0	508	0	496	318	0	35	
13	0	0	0	0	508	0	480	318	0	35	
14	0	0	0	0	508	0	463	318	0	35	
15	0	0	0	0	508	0	448	318	0	34	
0	0	0	0	0	508	0	430	318	0	35	
1	0	0	0	0	508	0	415	318	0	35	
2	0	0	0	0	508	0	401	318	0	35	
3	0	0	0	0	508	0	391	318	0	35	
4	0	0	0	0	508	0	384	318	0	34	
5	0	0	0	0	508	0	376	318	0	35	
6	0	0	0	0	508	0	371	318	0	35	
7	0	0	0	0	508	0	371	318	0	35	
8	0	0	0	0	508	0	374	318	0	35	
9	0	0	0	0	508	0	377	318	0	34	
10	0	0	0	0	508	0	384	318	0	35	
11	0	0	0	0	508	0	396	318	0	35	
12	0	0	0	0	508	0	406	318	0	35	
13	0	0	0	0	508	0	415	318	0	35	
14	0	0	0	0	508	0	430	318	0	34	
15	0	0	0	0	508	0	441	318	0	35	
0	0	0	0	0	508	0	455	318	0	35	
1	0	0	0	0	508	0	463	318	0	35	
2	0	0	0	0	508	0	473	318	0	35	
3	0	0	0	0	508	0	481	318	0	34	
4	0	0	0	0	508	0	487	318	0	35	
5	0	0	0	0	508	0	492	318	0	35	
6	0	0	0	0	508	0	496	318	0	35	
7	0	0	0	0	508	0	496	318	0	34	
8	0	0	0	0	508	0	496	318	0	34	
9	0	0	0	0	508	0	496	318	0	34	
10	0	0	0	0	508	0	496	318	0	34	
11	0	0	0	0	508	0	494	318	0	35	
12	0	0	0	0	508	0	492	318	0	35	
13	0	0	0	0	508	0	487	318	0	34	
14	0	0	0	0	508	0	487	318	0	35	
15	0	0	0	0	508	0	486	318	0	34	
0	0	0	0	0	508	0	483	318	0	35	
1	0	0	0	0	508	0	483	318	0	35	
2	0	0	0	0	508	0	481	318	0	34	
3	0	0	0	0	508	0	480	318	0	35	
4	0	0	0	0	508	0	480	318	0	35	
5	0	0	0	0	508	0	480	318	0	34	
6	0	0	0	0	508	0	480	318	0	35	
7	0	0	0	0	508	0	480	318	0	34	
8	0	0	0	0	508	0	480	318	0	35	
9	0	0	0	0	508	0	480	318	0	35	
10	0	0	0	0	508	0	480	318	0	34	
11	0	0	0	0	508	0	480	318	0	34	
12	0	0	0	0	508	0	480	318	0	34	
13	0	0	0	0	508	0	478	318	0	35	
14	0	0	0	0	508	0	476	318	0	34	
15	0	0	0	0	508	0	476	318	0	35	
0	0	0	0	0	508	0	476	318	0	35	
1	0	0	0	0	508	0	476	318	0	34	
2	0	0	0	0	508	0	476	318	0	35	
3	0	0	0	0	508	0	473	318	0	35	
4	0	0	0	0	508	0	473	318	0	34	
5	0	0	0	0	508	0	473	318	0	35	
6	0	0	0	0	508	0	473	318	0	34	
7	0	0	0	0	508	0	473	318	0	35	
8	0	0	0	0	508	0	476	318	0	35	
9	0	0	0	0	508	0	476	318	0	35	
10	0	0	0	0	508	0	476	318	0	35	
11	0	0	0	0	508	0	476	318	0	34	
12	0	0	0	0	508	0	476	318	0	35	
13	0	0	0	0	508	0	476	318	0	35	
14	0	0	0	0	508	0	476	318	0	35	
15	0	0	0	0	508	0	476	318	0	35	
0	0	0	0	0	508	0	476	318	0	34	
1	0	0	0	0	508	0	476	318	0	35	
2	0	0	0	0	508	0	476	318	0	35	
3	0	0	0	0	508	0	476	318	0	35	
4	0	0	0	0	508	0	478	318	0	35	
5	0	0	0	0	508	0	478	318	0	34	
6	0	0	0	0	508	0	480	318	0	35	
7	0	0	0	0	508	0	480	318	0	35	
8	0	0	0	0	508	0	480	318	0	35	
9	0	0	0	0	508	0	480	318	0	35	
10	0	0	0	0	508	0	480	318	0	34	
11	0	0	0	0	508	0	480	318	0	35	
12	0	0	0	0	508	0	480	318	0	35	
13	0	0	0	0	508	0	480	318	0	35	
14	0	0	0	0	508	0	480	318	0	35	
15	0	0	0	0	508	0	480	318	0	34	
0	0	0	0	0	508	0	480	318	0	34	
1	0	0	0	0	508	0	480	318	0	35	
2	0	0	0	0	508	0	480	318	0	34	
3	0	0	0	0	508	0	480	316	0	34	
4	0	0	0	0	508	0	478	316	0	34	
5	0	0	0	0	508	0	476	316	0	34	
6	0	0	0	0	508	0	476	318	0	35	
7	0	0	0	0	508	0	476	318	0	34	
8	0	0	0	0	508	0	476	318	0	34	
9	0	0	0	0	508	0	476	318	0	34	
10	0	0	0	0	508	0	476	318	0	35	
11	0	0	0	0	508	0	476	318	0	35	
12	0	0	0	0	508	0	476	318	0	35	
13	0	0	0	0	508	0	476	318	0	35	
14	0	0	0	0	508	0	476	318	0	34	
15	0	0	0	0	508	0	476	318	0	35	
0	0	0	0	0	508	0	476	318	0	35	
1	0	0	0	0	508	0	476	318	0	35	
2	0	0	0	0	508	0	473	318	0	35	
3	0	0	0	0	508	0	472	318	0	34	
4	0	0	0	0	508	0	472	318	0	35	
5	0	0	0	0	508	0	472	318	0	35	
6	0	0	0	0	508	0	472	318	0	35	
7	0	0	0	0	508	0	472	318	0	35	
8	0	0	0	0	508	0	472	318	0	34	
9	0	0	0	0	508	0	472	318	0	35	
10	0	0	0	0	508	0	476	318	0	35	
11	0	0	0	0	508	0	480	318	0	35	
12	0	0	0	0	508	0	480	318	0	35	
13	0	0	0	0	508	0	483	318	0	34	
14	0	0	0	0	508	0	486	318	0	35	
15	0	0	0	0	508	0	487	318	0	35	
0	0	0	0	0	508	0	489	318	0	35	
1	0	0	0	0	508	0	492	318	0	35	
2	0	0	0	0	508	0	494	318	0	34	
3	0	0	0	0	508	0	494	318	0	35	
4	0	0	0	0	508	0	496	318	0	35	
5	0	0	0	0	508	0	496	318	0	35	
6	0	0	0	0	508	0	494	318	0	35	
7	0	0	0	0	508	0	494	318	0	34	
8	0	0	0	0	508	0	492	318	0	35	
9	0	0	0	0	508	0	492	318	0	35	
10	0	0	0	0	508	0	487	318	0	35	
11	0	0	0	0	508	0	487	318	0	34	
12	0	0	0	0	508	0	487	318	0	34	
13	0	0	0	0	508	0	486	318	0	35	
14	0	0	0	0	508	0	483	318	0	35	
15	0	0	0	0	508	0	483	318	0	35	
0	0	0	0	0	508	0	481	318	0	35	
1	0	0	0	0	508	0	481	318	0	34	
2	0	0	0	0	508	0	481	318	0	35	
3	0	0	0	0	508	0	481	318	0	35	
4	0	0	0	0	508	0	481	318	0	35	
5	0	0	0	0	508	0	481	318	0	35	
6	0	0	0	0	508	0	481	318	0	34	
7	0	0	0	0	508	0	481	318	0	35	
8	0	0	0	0	508	0	483	318	0	35	
9	0	0	0	0	508	0	483	318	0	34	
10	0	0	0	0	508	0	483	318	0	34	
11	0	0	0	0	508	0	483	318	0	34	
12	0	0	0	0	508	0	486	318	0	34	
13	0	0	0	0	508	0	486	318	0	35	
14	0	0	0	0	508	0	486	318	0	34	
15	0	0	0	0	508	0	486	318	0	34	
0	0	0	0	0	508	0	487	318	0	34	
1	0	0	0	0	508	0	487	318	0	34	
2	0	0	0	0	508	0	487	318	0	35	
3	0	0	0	0	508	0	487	318	0	34	
4	0	0	0	0	508	0	492	318	0	34	
5	0	0	0	0	508	0	492	318	0	34	
6	0	0	0	0	508	0	492	318	0	34	
7	0	0	0	0	508	0	494	318	0	35	
8	0	0	0	0	508	0	494	318	0	34	
9	0	0	0	0	508	0	494	318	0	34	
10	0	0	0	0	508	0	494	318	0	34	
11	0	0	0	0	508	0	494	318	0	34	
12	0	0	0	0	508	0	494	318	0	35	
13	0	0	0	0	508	0	494	318	0	34	
14	0	0	0	0	508	0	494	318	0	34	
15	0	0	0	0	508	0	495	318	0	34	
0	0	0	0	0	508	0	496	318	0	34	
1	0	0	0	0	508	0	496	318	0	35	
2	0	0	0	0	508	0	496	318	0	34	
3	0	0	0	0	508	0	496	318	0	34	
4	0	0	0	0	508	0	496	318	0	34	
5	0	0	0	0	508	0	497	318	0	34	
6	0	0	0	0	508	0	497	318	0	35	
7	0	0	0	0	508	0	499	318	0	34	
8	0	0	0	0	508	0	499	318	0	34	
9	0	0	0	0	508	0	499	318	0	34	
10	0	0	0	0	508	0	499	318	0	34	
11	0	0	0	0	508	0	499	318	0	35	
12	0	0	0	0	508	0	499	318	0	34	
13	0	0	0	0	508	0	499	318	0	34	
14	0	0	0	0	508	0	499	318	0	34	
15	0	0	0	0	508	0	499	318	0	34	
0	0	0	0	0	508	0	499	318	0	35	
1	0	0	0	0	508	0	499	318	0	34	
2	0	0	0	0	508	0	499	318	0	35	
3	0	0	0	0	508	0	499	318	0	34	
4	0	0	0	0	508	0	499	318	0	34	
5	0	0	0	0	508	0	499	318	0	35	
6	0	0	0	0	508	0	499	318	0	35	
7	0	0	0	0	508	0	499	318	0	35	
8	0	0	0	0	508	0	499	318	0	34	
9	0	0	0	0	508	0	499	318	0	34	
10	0	0	0	0	508	0	499	318	0	35	
11	0	0	0	0	508	0	499	318	0	35	
12	0	0	0	0	508	0	499	318	0	35	
13	0	0	0	0	508	0	499	318	0	34	
14	0	0	0	0	508	0	504	318	0	35	
15	0	0	0	0	508	0	504	318	0	35	
0	0	0	0	0	508	0	505	318	0	35	
1	0	0	0	0	508	0	508	318	0	35	
2	0	0	0	0	508	0	511	318	0	34	
3	0	0	0	0	508	0	512	318	0	35	
4	0	0	0	0	508	0	515	318	0	35	
5	0	0	0	0	508	0	518	318	0	35	
6	0	0	0	0	508	0	519	318	0	35	
7	0	0	0	0	508	0	519	318	0	34	
8	0	0	0	0	508	0	524	318	0	35	
9	0	0	0	0	508	0	524	318	0	35	
10	0	0	0	0	508	0	524	318	0	35	
11	0	0	0	0	508	0	524	318	0	35	
12	0	0	0	0	508	0	524	318	0	34	
13	0	0	0	0	508	0	524	318	0	34	
14	0	0	0	0	508	0	524	318	0	35	
15	0	0	0	0	508	0	524	318	0	34	
0	0	0	0	0	508	0	521	318	0	35	
1	0	0	0	0	508	0	519	318	0	34	
2	0	0	0	0	508	0	519	318	0	34	
3	0	0	0	0	508	0	519	318	0	35	
4	0	0	0	0	508	0	519	318	0	34	
5	0	0	0	0	508	0	519	318	0	34	
6	0	0	0	0	508	0	519	318	0	34	
7	0	0	0	0	508	0	519	318	0	34	
8	0	0	0	0	508	0	519	318	0	35	
9	0	0	0	0	508	0	524	318	0	34	
10	0	0	0	0	508	0	524	318	0	34	
11	0	0	0	0	508	0	526	318	0	34	
12	0	0	0	0	508	0	526	318	0	34	
13	0	0	0	0	508	0	527	318	0	35	
14	0	0	0	0	508	0	527	318	0	35	
15	0	0	0	0	508	0	527	318	0	35	
0	0	0	0	0	508	0	529	318	0	34	
1	0	0	0	0	508	0	531	318	0	35	
2	0	0	0	0	508	0	531	318	0	35	
3	0	0	0	0	508	0	531	318	0	35	
4	0	0	0	0	508	0	531	318	0	35	
5	0	0	0	0	508	0	531	318	0	34	
6	0	0	0	0	508	0	531	318	0	35	
7	0	0	0	0	508	0	529	318	0	35	
8	0	0	0	0	508	0	527	318	0	35	
9	0	0	0	0	508	0	527	318	0	35	
10	0	0	0	0	508	0	527	318	0	34	
11	0	0	0	0	508	0	527	318	0	35	
12	0	0	0	0	508	0	527	318	0	35	
13	0	0	0	0	508	0	527	318	0	35	
14	0	0	0	0	508	0	526	318	0	35	
15	0	0	0	0	508	0	526	318	0	34	
0	0	0	0	0	508	0	524	318	0	35	
1	0	0	0	0	508	0	524	318	0	35	
2	0	0	0	0	508	0	524	318	0	35	
3	0	0	0	0	508	0	524	318	0	35	
4	0	0	0	0	508	0	524	318	0	34	
5	0	0	0	0	508	0	524	318	0	34	
6	0	0	0	0	508	0	524	318	0	35	
7	0	0	0	0	508	0	521	318	0	34	
8	0	0	0	0	508	0	519	318	0	34	
9	0	0	0	0	508	0	519	318	0	34	
10	0	0	0	0	508	0	519	318	0	34	
11	0	0	0	0	508	0	519	318	0	35	
12	0	0	0	0	508	0	518	318	0	34	
13	0	0	0	0	508	0	515	318	0	34	
14	0	0	0	0	508	0	515	318	0	34	
15	0	0	0	0	508	0	512	318	0	34	
0	0	0	0	0	508	0	512	318	0	35	
1	0	0	0	0	508	0	511	318	0	34	
2	0	0	0	0	508	0	510	318	0	34	
3	0	0	0	0	508	0	508	318	0	34	
4	0	0	0	0	508	0	508	318	0	34	
5	0	0	0	0	508	0	505	318	0	34	
6	0	0	0	0	508	0	504	318	0	34	
7	0	0	0	0	508	0	504	318	0	34	
8	0	0	0	0	508	0	504	318	0	34	
9	0	0	0	0	508	0	502	318	0	34	
10	0	0	0	0	508	0	499	318	0	35	
11	0	0	0	0	508	0	497	318	0	35	
12	0	0	0	0	508	0	496	318	0	34	
13	0	0	0	0	508	0	496	318	0	34	
14	0	0	0	0	508	0	494	318	0	35	
15	0	0	0	0	508	0	492	318	0	35	
0	0	0	0	0	508	0	487	318	0	35	
1	0	0	0	0	508	0	487	318	0	35	
2	0	0	0	0	508	0	486	318	0	34	
3	0	0	0	0	508	0	483	318	0	34	
4	0	0	0	0	508	0	483	318	0	35	
5	0	0	0	0	508	0	481	318	0	35	
6	0	0	0	0	508	0	480	318	0	35	
7	0	0	0	0	508	0	480	318	0	34	
8	0	0	0	0	508	0	480	318	0	35	
9	0	0	0	0	508	0	480	318	0	35	
10	0	0	0	0	508	0	480	318	0	35	
11	0	0	0	0	508	0	478	318	0	35	
12	0	0	0	0	508	0	478	318	0	34	
13	0	0	0	0	508	0	478	316	0	34	
14	0	0	0	0	508	0	478	318	0	35	
15	0	0	0	0	508	0	478	318	0	34	
0	0	0	0	0	508	0	478	318	0	34	
1	0	0	0	0	508	0	478	318	0	34	
2	0	0	0	0	508	0	478	318	0	34	
3	0	0	0	0	508	0	478	318	0	35	
4	0	0	0	0	508	0	478	318	0	34	
5	0	0	0	0	508	0	476	318	0	34	
6	0	0	0	0	508	0	476	318	0	34	
7	0	0	0	0	508	0	476	318	0	35	
8	0	0	0	0	508	0	476	318	0	35	
9	0	0	0	0	508	0	476	318	0	34	
10	0	0	0	0	508	0	473	318	0	34	
11	0	0	0	0	508	0	472	318	0	34	
12	0	0	0	0	508	0	472	318	0	34	
13	0	0	0	0	508	0	472	318	0	35	
14	0	0	0	0	508	0	470	318	0	35	
15	0	0	0	0	508	0	467	318	0	35	
0	0	0	0	0	508	0	467	318	0	34	
1	0	0	0	0	508	0	467	318	0	34	
2	0	0	0	0	508	0	467	318	0	35	
3	0	0	0	0	508	0	467	318	0	35	
4	0	0	0	0	508	0	465	318	0	35	
5	0	0	0	0	508	0	465	318	0	34	
6	0	0	0	0	508	0	465	318	0	35	
7	0	0	0	0	508	0	463	318	0	35	
8	0	0	0	0	508	0	463	318	0	35	
9	0	0	0	0	508	0	463	318	0	34	
10	0	0	0	0	508	0	463	316	0	34	
11	0	0	0	0	508	0	463	318	0	34	
12	0	0	0	0	508	0	465	318	0	35	
13	0	0	0	0	508	0	465	318	0	35	
14	0	0	0	0	508	0	467	318	0	35	
15	0	0	0	0	508	0	467	318	0	34	
0	0	0	0	0	508	0	467	316	0	35	
1	0	0	0	0	508	0	467	316	0	35	
2	0	0	0	0	508	0	467	318	0	35	
3	0	0	0	0	508	0	467	318	0	35	
4	0	0	0	0	508	0	467	318	0	34	
5	0	0	0	0	508	0	467	318	0	35	
6	0	0	0	0	508	0	465	318	0	34	
7	0	0	0	0	508	0	465	318	0	35	
8	0	0	0	0	508	0	463	318	0	35	
9	0	0	0	0	508	0	463	318	0	34	
10	0	0	0	0	508	0	463	318	0	34	
11	0	0	0	0	508	0	463	318	0	35	
12	0	0	0	0	508	0	463	318	0	35	
13	0	0	0	0	508	0	463	318	0	35	
14	0	0	0	0	508	0	463	318	0	34	
15	0	0	0	0	508	0	463	318	0	35	
0	0	0	0	0	508	0	463	318	0	34	
1	0	0	0	0	508	0	463	318	0	35	
2	0	0	0	0	508	0	465	318	0	35	
3	0	0	0	0	508	0	467	318	0	34	
4	0	0	0	0	508	0	467	318	0	34	
5	0	0	0	0	508	0	470	318	0	35	
6	0	0	0	0	508	0	472	318	0	35	
7	0	0	0	0	508	0	472	318	0	35	
8	0	0	0	0	508	0	472	318	0	34	
9	0	0	0	0	508	0	472	318	0	34	
10	0	0	0	0	508	0	472	318	0	35	
11	0	0	0	0	508	0	472	316	0	35	
12	0	0	0	0	508	0	472	318	0	35	
13	0	0	0	0	508	0	472	318	0	34	
14	0	0	0	0	508	0	472	318	0	35	
15	0	0	0	0	508	0	472	318	0	35	
0	0	0	0	0	508	0	472	318	0	35	
1	0	0	0	0	508	0	472	318	0	34	
2	0	0	0	0	508	0	473	318	0	34	
3	0	0	0	0	508	0	473	318	0	34	
4	0	0	0	0	508	0	476	318	0	35	
5	0	0	0	0	508	0	476	318	0	35	
6	0	0	0	0	508	0	476	318	0	35	
7	0	0	0	0	508	0	476	318	0	34	
8	0	0	0	0	508	0	476	318	0	35	
9	0	0	0	0	508	0	476	318	0	35	
10	0	0	0	0	508	0	473	318	0	35	
11	0	0	0	0	508	0	473	318	0	34	
12	0	0	0	0	508	0	472	318	0	34	
13	0	0	0	0	508	0	472	318	0	34	
14	0	0	0	0	508	0	472	318	0	34	
15	0	0	0	0	508	0	472	318	0	35	
0	0	0	0	0	508	0	472	318	0	35	
1	0	0	0	0	508	0	472	318	0	34	
2	0	0	0	0	508	0	472	318	0	34	
3	0	0	0	0	508	0	472	318	0	34	
4	0	0	0	0	508	0	472	318	0	34	
5	0	0	0	0	508	0	472	318	0	35	
6	0	0	0	0	508	0	472	318	0	34	
7	0	0	0	0	508	0	472	318	0	35	
8	0	0	0	0	508	0	472	318	0	34	
9	0	0	0	0	508	0	472	318	0	35	
10	0	0	0	0	508	0	472	318	0	35	
11	0	0	0	0	508	0	472	318	0	34	
12	0	0	0	0	508	0	472	318	0	34	
13	0	0	0	0	508	0	472	318	0	34	
14	0	0	0	0	508	0	472	318	0	35	
15	0	0	0	0	508	0	472	318	0	35	
0	0	0	0	0	508	0	472	318	0	34	
1	0	0	0	0	508	0	472	318	0	34	
2	0	0	0	0	508	0	472	318	0	35	
3	0	0	0	0	508	0	472	318	0	35	
4	0	0	0	0	508	0	472	318	0	34	
5	0	0	0	0	508	0	472	318	0	34	
6	0	0	0	0	508	0	473	318	0	35	
7	0	0	0	0	508	0	473	318	0	35	
8	0	0	0	0	508	0	476	318	0	35	
9	0	0	0	0	508	0	476	318	0	35	
10	0	0	0	0	508	0	476	318	0	34	
11	0	0	0	0	508	0	473	318	0	34	
12	0	0	0	0	508	0	473	318	0	35	
13	0	0	0	0	508	0	472	318	0	35	
14	0	0	0	0	508	0	472	318	0	35	
15	0	0	0	0	508	0	472	318	0	34	
0	0	0	0	0	508	0	472	318	0	35	
1	0	0	0	0	508	0	472	318	0	35	
2	0	0	0	0	508	0	472	318	0	35	
3	0	0	0	0	508	0	472	318	0	34	
4	0	0	0	0	508	0	472	318	0	34	
5	0	0	0	0	508	0	472	318	0	34	
6	0	0	0	0	508	0	472	318	0	35	
7	0	0	0	0	508	0	472	318	0	35	
8	0	0	0	0	508	0	472	318	0	35	
9	0	0	0	0	508	0	473	316	0	34	
10	0	0	0	0	508	0	476	318	0	34	
11	0	0	0	0	508	0	476	318	0	35	
12	0	0	0	0	508	0	476	318	0	35	
13	0	0	0	0	508	0	476	318	0	34	
14	0	0	0	0	508	0	478	318	0	34	
15	0	0	0	0	508	0	478	318	0	35	
0	0	0	0	0	508	0	480	318	0	35	
1	0	0	0	0	508	0	480	318	0	35	
2	0	0	0	0	508	0	480	318	0	34	
3	0	0	0	0	508	0	480	318	0	34	
4	0	0	0	0	508	0	480	318	0	34	
5	0	0	0	0	508	0	480	318	0	35	
6	0	0	0	0	508	0	480	318	0	35	
7	0	0	0	0	508	0	480	318	0	35	
8	0	0	0	0	508	0	480	318	0	34	
9	0	0	0	0	508	0	480	318	0	35	
10	0	0	0	0	508	0	480	318	0	35	
11	0	0	0	0	508	0	480	318	0	35	
12	0	0	0	0	508	0	480	318	0	35	
13	0	0	0	0	508	0	478	318	0	34	
14	0	0	0	0	508	0	478	318	0	35	
15	0	0	0	0	508	0	476	318	0	35	
0	0	0	0	0	508	0	476	318	0	35	
1	0	0	0	0	508	0	476	318	0	35	
2	0	0	0	0	508	0	476	318	0	34	
3	0	0	0	0	508	0	478	318	0	34	
4	0	0	0	0	508	0	478	318	0	35	
5	0	0	0	0	508	0	478	318	0	35	
6	0	0	0	0	508	0	478	318	0	35	
7	0	0	0	0	508	0	480	318	0	34	
8	0	0	0	0	508	0	480	318	0	35	
9	0	0	0	0	508	0	478	318	0	35	
10	0	0	0	0	508	0	478	318	0	35	
11	0	0	0	0	508	0	478	318	0	35	
12	0	0	0	0	508	0	476	318	0	34	
13	0	0	0	0	508	0	476	318	0	35	
14	0	0	0	0	508	0	476	318	0	35	
15	0	0	0	0	508	0	476	318	0	34	
0	0	0	0	0	508	0	476	318	0	34	
1	0	0	0	0	508	0	473	318	0	34	
2	0	0	0	0	508	0	473	318	0	34	
3	0	0	0	0	508	0	473	318	0	35	
4	0	0	0	0	508	0	473	318	0	34	
5	0	0	0	0	508	0	473	318	0	34	
6	0	0	0	0	508	0	473	318	0	34	
7	0	0	0	0	508	0	476	318	0	34	
8	0	0	0	0	508	0	476	318	0	35	
9	0	0	0	0	508	0	476	318	0	34	
10	0	0	0	0	508	0	476	318	0	34	
11	0	0	0	0	508	0	478	318	0	34	
12	0	0	0	0	508	0	480	318	0	34	
13	0	0	0	0	510	0	480	318	0	35	
14	0	0	0	0	508	0	480	318	0	34	
15	0	0	0	0	508	0	480	318	0	34	
0	0	0	0	0	508	0	480	318	0	34	
1	0	0	0	0	508	0	480	318	0	34	
2	0	0	0	0	508	0	480	318	0	35	
3	0	0	0	0	508	0	480	318	0	34	
4	0	0	0	0	508	0	480	318	0	34	
5	0	0	0	0	508	0	480	318	0	34	
6	0	0	0	0	508	0	478	318	0	34	
7	0	0	0	0	508	0	478	318	0	35	
8	0	0	0	0	508	0	478	318	0	34	
9	0	0	0	0	508	0	478	318	0	34	
10	0	0	0	0	508	0	478	318	0	34	
11	0	0	0	0	508	0	476	318	0	34	
12	0	0	0	0	508	0	478	318	0	35	
13	0	0	0	0	508	0	478	318	0	34	
14	0	0	0	0	508	0	478	318	0	34	
15	0	0	0	0	508	0	478	318	0	34	
0	0	0	0	0	508	0	480	318	0	34	
1	0	0	0	0	508	0	480	318	0	35	
2	0	0	0	0	508	0	480	316	0	34	
3	0	0	0	0	508	0	480	318	0	35	
4	0	0	0	0	508	0	480	318	0	34	
5	0	0	0	0	508	0	480	318	0	34	
6	0	0	0	0	508	0	480	318	0	35	
7	0	0	0	0	508	0	480	318	0	35	
8	0	0	0	0	508	0	480	318	0	34	
9	0	0	0	0	508	0	480	318	0	34	
10	0	0	0	0	508	0	480	318	0	35	
11	0	0	0	0	508	0	480	318	0	35	
12	0	0	0	0	508	0	480	318	0	35	
13	0	0	0	0	508	0	480	318	0	34	
14	0	0	0	0	508	0	478	318	0	34	
15	0	0	0	0	508	0	478	318	0	34	
0	0	0	0	0	508	0	478	318	0	35	
1	0	0	0	0	508	0	476	318	0	35	
2	0	0	0	0	508	0	476	316	0	35	
3	0	0	0	0	508	0	476	318	0	34	
4	0	0	0	0	508	0	476	318	0	34	
5	0	0	0	0	508	0	476	318	0	35	
6	0	0	0	0	508	0	476	318	0	35	
7	0	0	0	0	508	0	473	318	0	35	
8	0	0	0	0	508	0	473	318	0	34	
9	0	0	0	0	508	0	473	318	0	34	
10	0	0	0	0	508	0	473	318	0	35	
11	0	0	0	0	508	0	473	318	0	35	
12	0	0	0	0	508	0	473	318	0	35	
13	0	0	0	0	508	0	476	318	0	34	
14	0	0	0	0	508	0	476	318	0	35	
15	0	0	0	0	508	0	476	318	0	34	
0	0	0	0	0	508	0	476	318	0	34	
1	0	0	0	0	508	0	476	318	0	35	
2	0	0	0	0	508	0	476	318	0	34	
3	0	0	0	0	508	0	476	318	0	34	
4	0	0	0	0	508	0	476	318	0	34	
5	0	0	0	0	508	0	478	318	0	35	
6	0	0	0	0	508	0	478	318	0	35	
7	0	0	0	0	508	0	478	318	0	34	
8	0	0	0	0	508	0	478	318	0	35	
9	0	0	0	0	508	0	478	318	0	34	
10	0	0	0	0	508	0	478	318	0	34	
11	0	0	0	0	508	0	478	318	0	35	
12	0	0	0	0	508	0	478	318	0	34	
13	0	0	0	0	508	0	478	318	0	34	
14	0	0	0	0	508	0	478	318	0	34	
15	0	0	0	0	508	0	478	318	0	35	
0	0	0	0	0	508	0	480	318	0	35	
1	0	0	0	0	508	0	480	318	0	34	
2	0	0	0	0	508	0	480	318	0	34	
3	0	0	0	0	508	0	478	318	0	35	
4	0	0	0	0	508	0	478	318	0	34	
5	0	0	0	0	508	0	476	318	0	35	
6	0	0	0	0	508	0	476	318	0	34	
7	0	0	0	0	508	0	476	318	0	35	
8	0	0	0	0	508	0	473	318	0	35	
9	0	0	0	0	508	0	472	318	0	35	
10	0	0	0	0	508	0	472	318	0	35	
11	0	0	0	0	508	0	472	318	0	34	
12	0	0	0	0	508	0	472	318	0	35	
13	0	0	0	0	508	0	472	318	0	35	
14	0	0	0	0	508	0	472	318	0	35	
15	0	0	0	0	508	0	472	316	0	35	
0	0	0	0	0	508	0	472	316	0	34	
1	0	0	0	0	508	0	472	318	0	35	
2	0	0	0	0	508	0	472	318	0	35	
3	0	0	0	0	508	0	472	318	0	35	
4	0	0	0	0	508	0	472	318	0	35	
5	0	0	0	0	508	0	472	318	0	34	
6	0	0	0	0	508	0	472	318	0	35	
7	0	0	0	0	508	0	472	318	0	35	
8	0	0	0	0	508	0	473	318	0	35	
9	0	0	0	0	508	0	476	318	0	35	
10	0	0	0	0	508	0	476	318	0	34	
11	0	0	0	0	508	0	476	318	0	35	
12	0	0	0	0	508	0	478	318	0	35	
13	0	0	0	0	508	0	478	318	0	35	
14	0	0	0	0	508	0	478	318	0	35	
15	0	0	0	0	508	0	478	318	0	34	
0	0	0	0	0	508	0	478	318	0	34	
1	0	0	0	0	508	0	478	318	0	35	
2	0	0	0	0	508	0	476	318	0	34	
3	0	0	0	0	508	0	476	318	0	34	
4	0	0	0	0	508	0	476	318	0	34	
5	0	0	0	0	508	0	476	318	0	34	
6	0	0	0	0	508	0	476	318	0	35	
7	0	0	0	0	508	0	476	318	0	34	
8	0	0	0	0	508	0	476	318	0	34	
9	0	0	0	0	508	0	476	318	0	34	
10	0	0	0	0	508	0	476	318	0	34	
11	0	0	0	0	508	0	476	318	0	35	
12	0	0	0	0	508	0	476	318	0	34	
13	0	0	0	0	508	0	476	318	0	34	
14	0	0	0	0	508	0	476	318	0	34	
15	0	0	0	0	508	0	476	318	0	34	
0	0	0	0	0	508	0	476	318	0	35	
1	0	0	0	0	508	0	476	318	0	34	
2	0	0	0	0	508	0	476	318	0	34	
3	0	0	0	0	508	0	476	318	0	34	
4	0	0	0	0	508	0	476	318	0	35	
5	0	0	0	0	508	0	476	318	0	34	
6	0	0	0	0	508	0	476	318	0	35	
7	0	0	0	0	508	0	476	318	0	35	
8	0	0	0	0	508	0	473	318	0	34	
9	0	0	0	0	508	0	473	318	0	34	
10	0	0	0	0	508	0	473	318	0	35	
11	0	0	0	0	508	0	473	318	0	35	
12	0	0	0	0	508	0	473	318	0	35	
13	0	0	0	0	508	0	472	318	0	34	
14	0	0	0	0	508	0	472	318	0	34	
15	0	0	0	0	508	0	472	318	0	35	
0	0	0	0	0	508	0	472	318	0	35	
1	0	0	0	0	508	0	472	318	0	35	
2	0	0	0	0	508	0	472	318	0	34	
3	0	0	0	0	508	0	472	318	0	35	
4	0	0	0	0	508	0	472	318	0	35	
5	0	0	0	0	508	0	472	318	0	34	
6	0	0	0	0	508	0	473	318	0	34	
7	0	0	0	0	508	0	473	318	0	34	
8	0	0	0	0	508	0	476	318	0	34	
9	0	0	0	0	508	0	476	318	0	35	
10	0	0	0	0	508	0	476	318	0	34	
11	0	0	0	0	508	0	476	318	0	34	
12	0	0	0	0	508	0	476	318	0	34	
13	0	0	0	0	508	0	476	318	0	34	
14	0	0	0	0	508	0	476	318	0	35	
15	0	0	0	0	508	0	476	318	0	35	
0	0	0	0	0	508	0	473	318	0	35	
1	0	0	0	0	508	0	472	318	0	34	
2	0	0	0	0	508	0	472	318	0	35	
3	0	0	0	0	508	0	472	318	0	35	
4	0	0	0	0	508	0	472	318	0	35	
5	0	0	0	0	508	0	472	318	0	35	
6	0	0	0	0	508	0	467	318	0	34	
7	0	0	0	0	508	0	467	318	0	34	
8	0	0	0	0	508	0	467	318	0	35	
9	0	0	0	0	508	0	467	318	0	35	
10	0	0	0	0	508	0	467	318	0	35	
11	0	0	0	0	508	0	467	318	0	34	
12	0	0	0	0	508	0	467	318	0	35	
13	0	0	0	0	508	0	467	318	0	35	
14	0	0	0	0	508	0	472	318	0	35	
15	0	0	0	0	508	0	472	318	0	35	
0	0	0	0	0	508	0	472	318	0	34	
1	0	0	0	0	508	0	476	318	0	35	
2	0	0	0	0	508	0	476	318	0	35	
3	0	0	0	0	508	0	478	318	0	35	
4	0	0	0	0	508	0	480	318	0	35	
5	0	0	0	0	508	0	480	318	0	34	
6	0	0	0	0	508	0	480	318	0	35	
7	0	0	0	0	508	0	480	318	0	35	
8	0	0	0	0	508	0	480	318	0	35	
9	0	0	0	0	508	0	480	318	0	35	
10	0	0	0	0	508	0	480	318	0	34	
11	0	0	0	0	508	0	480	318	0	34	
12	0	0	0	0	508	0	480	318	0	34	
13	0	0	0	0	508	0	480	318	0	34	
14	0	0	0	0	508	0	480	318	0	35	
15	0	0	0	0	508	0	480	318	0	34	
0	0	0	0	0	508	0	478	318	0	35	
1	0	0	0	0	508	0	476	318	0	34	
2	0	0	0	0	508	0	476	318	0	34	
3	0	0	0	0	508	0	476	318	0	35	
4	0	0	0	0	508	0	476	318	0	34	
5	0	0	0	0	508	0	476	318	0	35	
6	0	0	0	0	508	0	476	318	0	34	
7	0	0	0	0	508	0	476	318	0	35	
8	0	0	0	0	508	0	476	318	0	35	
9	0	0	0	0	508	0	473	318	0	34	
10	0	0	0	0	508	0	473	318	0	34	
11	0	0	0	0	508	0	473	318	0	35	
12	0	0	0	0	508	0	473	318	0	34	
13	0	0	0	0	508	0	473	318	0	34	
14	0	0	0	0	508	0	473	318	0	34	
15	0	0	0	0	508	0	472	316	0	34	
0	0	0	0	0	508	0	473	318	0	35	
1	0	0	0	0	508	0	473	318	0	34	
2	0	0	0	0	508	0	473	318	0	35	
3	0	0	0	0	508	0	473	318	0	34	
4	0	0	0	0	508	0	476	318	0	34	
5	0	0	0	0	508	0	476	318	0	35	
6	0	0	0	0	508	0	476	318	0	35	
7	0	0	0	0	508	0	476	318	0	35	
8	0	0	0	0	508	0	476	318	0	34	
9	0	0	0	0	508	0	476	318	0	35	
10	0	0	0	0	508	0	476	318	0	35	
11	0	0	0	0	508	0	476	318	0	34	
12	0	0	0	0	508	0	476	318	0	34	
13	0	0	0	0	508	0	476	318	0	34	
14	0	0	0	0	508	0	473	318	0	34	
15	0	0	0	0	508	0	473	318	0	35	
0	0	0	0	0	508	0	472	318	0	34	
1	0	0	0	0	508	0	472	318	0	34	
2	0	0	0	0	508	0	472	318	0	34	
3	0	0	0	0	508	0	472	318	0	35	
4	0	0	0	0	508	0	472	318	0	34	
5	0	0	0	0	508	0	472	318	0	35	
6	0	0	0	0	508	0	473	318	0	35	
7	0	0	0	0	508	0	476	318	0	34	
8	0	0	0	0	508	0	476	318	0	34	
9	0	0	0	0	508	0	476	318	0	35	
10	0	0	0	0	508	0	478	318	0	34	
11	0	0	0	0	508	0	480	318	0	35	
12	0	0	0	0	508	0	480	318	0	34	
13	0	0	0	0	508	0	480	316	0	35	
14	0	0	0	0	508	0	480	318	0	35	
15	0	0	0	0	508	0	480	318	0	35	
0	0	0	0	0	508	0	480	318	0	35	
1	0	0	0	0	508	0	480	318	0	34	
2	0	0	0	0	508	0	480	318	0	35	
3	0	0	0	0	508	0	480	318	0	35	
4	0	0	0	0	508	0	478	318	0	35	
5	0	0	0	0	508	0	476	318	0	35	
6	0	0	0	0	508	0	476	318	0	34	
7	0	0	0	0	508	0	476	318	0	35	
8	0	0	0	0	508	0	476	318	0	35	
9	0	0	0	0	508	0	476	318	0	35	
10	0	0	0	0	508	0	476	318	0	35	
11	0	0	0	0	508	0	476	318	0	34	
12	0	0	0	0	508	0	476	318	0	34	
13	0	0	0	0	508	0	476	318	0	35	
14	0	0	0	0	508	0	476	318	0	35	
15	0	0	0	0	508	0	476	318	0	35	
0	0	0	0	0	508	0	476	318	0	34	
1	0	0	0	0	508	0	473	318	0	35	
2	0	0	0	0	508	0	473	318	0	35	
3	0	0	0	0	508	0	472	318	0	35	
4	0	0	0	0	508	0	472	318	0	35	
5	0	0	0	0	508	0	472	318	0	34	
6	0	0	0	0	508	0	472	318	0	34	
7	0	0	0	0	508	0	472	318	0	35	
8	0	0	0	0	508	0	473	318	0	34	
9	0	0	0	0	508	0	476	318	0	34	
10	0	0	0	0	508	0	476	318	0	34	
11	0	0	0	0	508	0	480	318	0	34	
12	0	0	0	0	508	0	480	318	0	35	
13	0	0	0	0	508	0	481	318	0	34	
14	0	0	0	0	508	0	483	318	0	34	
15	0	0	0	0	508	0	486	318	0	34	
0	0	0	0	0	508	0	487	318	0	34	
1	0	0	0	0	508	0	487	318	0	35	
2	0	0	0	0	508	0	487	318	0	34	
3	0	0	0	0	508	0	487	318	0	34	
4	0	0	0	0	508	0	489	318	0	34	
5	0	0	0	0	508	0	489	318	0	35	
6	0	0	0	0	508	0	492	318	0	35	
7	0	0	0	0	508	0	492	318	0	34	
8	0	0	0	0	508	0	492	318	0	34	
9	0	0	0	0	508	0	492	318	0	34	
10	0	0	0	0	508	0	489	318	0	34	
11	0	0	0	0	508	0	489	318	0	35	
12	0	0	0	0	508	0	487	318	0	34	
13	0	0	0	0	508	0	487	318	0	35	
14	0	0	0	0	508	0	487	318	0	34	
15	0	0	0	0	508	0	487	318	0	35	
0	0	0	0	0	508	0	487	318	0	35	
1	0	0	0	0	508	0	487	318	0	34	
2	0	0	0	0	508	0	486	318	0	35	
3	0	0	0	0	508	0	486	318	0	34	
4	0	0	0	0	508	0	486	318	0	35	
5	0	0	0	0	508	0	486	318	0	35	
6	0	0	0	0	508	0	487	318	0	35	
7	0	0	0	0	508	0	487	318	0	35	
8	0	0	0	0	508	0	487	318	0	34	
9	0	0	0	0	508	0	487	318	0	35	
10	0	0	0	0	508	0	487	318	0	35	
11	0	0	0	0	508	0	487	318	0	35	
12	0	0	0	0	508	0	487	318	0	34	
13	0	0	0	0	508	0	489	318	0	34	
14	0	0	0	0	508	0	489	318	0	35	
15	0	0	0	0	508	0	489	318	0	35	
0	0	0	0	0	508	0	489	318	0	35	
1	0	0	0	0	508	0	487	318	0	35	
2	0	0	0	0	508	0	487	318	0	34	
3	0	0	0	0	508	0	487	318	0	35	
4	0	0	0	0	508	0	487	318	0	35	
5	0	0	0	0	508	0	487	318	0	35	
6	0	0	0	0	508	0	487	318	0	35	
7	0	0	0	0	508	0	487	318	0	34	
8	0	0	0	0	508	0	487	318	0	35	
9	0	0	0	0	508	0	487	318	0	35	
10	0	0	0	0	508	0	487	318	0	35	
11	0	0	0	0	508	0	487	318	0	35	
12	0	0	0	0	508	0	487	318	0	34	
13	0	0	0	0	508	0	487	318	0	35	
14	0	0	0	0	508	0	487	318	0	35	
15	0	0	0	0	508	0	487	318	0	34	
0	0	0	0	0	508	0	487	318	0	34	
1	0	0	0	0	508	0	487	318	0	34	
2	0	0	0	0	508	0	487	318	0	34	
3	0	0	0	0	508	0	487	318	0	35	
4	0	0	0	0	508	0	487	318	0	34	
5	0	0	0	0	508	0	486	318	0	34	
6	0	0	0	0	508	0	483	318	0	34	
7	0	0	0	0	508	0	483	318	0	34	
8	0	0	0	0	508	0	481	318	0	35	
9	0	0	0	0	508	0	480	318	0	34	
10	0	0	0	0	508	0	480	318	0	34	
11	0	0	0	0	508	0	480	318	0	34	
12	0	0	0	0	508	0	480	318	0	34	
13	0	0	0	0	508	0	478	318	0	35	
14	0	0	0	0	508	0	476	318	0	34	
15	0	0	0	0	508	0	476	318	0	34	
0	0	0	0	0	508	0	473	318	0	34	
1	0	0	0	0	508	0	472	318	0	34	
2	0	0	0	0	508	0	472	318	0	35	
3	0	0	0	0	508	0	472	316	0	34	
4	0	0	0	0	508	0	467	316	0	34	
5	0	0	0	0	508	0	465	316	0	34	
6	0	0	0	0	508	0	463	316	0	34	
7	0	0	0	0	508	0	463	318	0	35	
8	0	0	0	0	508	0	463	318	0	35	
9	0	0	0	0	508	0	463	318	0	35	
10	0	0	0	0	508	0	463	318	0	34	
11	0	0	0	0	508	0	463	318	0	34	
12	0	0	0	0	508	0	463	318	0	35	
13	0	0	0	0	508	0	465	318	0	35	
14	0	0	0	0	508	0	467	318	0	34	
15	0	0	0	0	508	0	470	318	0	34	
0	0	0	0	0	508	0	472	318	0	35	
1	0	0	0	0	508	0	472	318	0	35	
2	0	0	0	0	508	0	473	318	0	35	
3	0	0	0	0	508	0	476	318	0	35	
4	0	0	0	0	508	0	476	318	0	34	
5	0	0	0	0	508	0	478	318	0	35	
6	0	0	0	0	508	0	480	318	0	35	
7	0	0	0	0	508	0	480	318	0	35	
8	0	0	0	0	508	0	480	318	0	35	
9	0	0	0	0	508	0	478	318	0	34	
10	0	0	0	0	508	0	476	318	0	34	
11	0	0	0	0	508	0	476	318	0	35	
12	0	0	0	0	508	0	476	318	0	35	
13	0	0	0	0	508	0	472	318	0	34	
14	0	0	0	0	508	0	472	318	0	34	
15	0	0	0	0	508	0	472	318	0	35	
0	0	0	0	0	508	0	472	318	0	34	
1	0	0	0	0	508	0	470	318	0	35	
2	0	0	0	0	508	0	467	318	0	34	
3	0	0	0	0	508	0	467	318	0	34	
4	0	0	0	0	508	0	467	318	0	35	
5	0	0	0	0	508	0	467	318	0	34	
6	0	0	0	0	508	0	467	318	0	35	
7	0	0	0	0	508	0	467	318	0	34	
8	0	0	0	0	508	0	467	318	0	34	
9	0	0	0	0	508	0	470	318	0	34	
10	0	0	0	0	508	0	472	318	0	34	
11	0	0	0	0	508	0	472	318	0	35	
12	0	0	0	0	508	0	472	318	0	35	
13	0	0	0	0	508	0	472	318	0	34	
14	0	0	0	0	508	0	472	318	0	34	
15	0	0	0	0	508	0	473	318	0	35	
0	0	0	0	0	508	0	473	318	0	35	
1	0	0	0	0	508	0	473	318	0	35	
2	0	0	0	0	508	0	473	318	0	34	
3	0	0	0	0	508	0	473	318	0	35	
4	0	0	0	0	508	0	472	318	0	35	
5	0	0	0	0	508	0	472	318	0	34	
6	0	0	0	0	508	0	472	318	0	34	
7	0	0	0	0	508	0	472	318	0	34	
8	0	0	0	0	510	0	472	318	0	35	
9	0	0	0	0	508	0	472	316	0	35	
10	0	0	0	0	508	0	472	318	0	34	
11	0	0	0	0	508	0	473	318	0	34	
12	0	0	0	0	508	0	476	318	0	34	
13	0	0	0	0	508	0	480	318	0	35	
14	0	0	0	0	508	0	483	318	0	35	
15	0	0	0	0	508	0	487	318	0	35	
0	0	0	0	0	508	0	496	318	0	35	
1	0	0	0	0	508	0	502	318	0	34	
2	0	0	0	0	508	0	508	318	0	35	
3	0	0	0	0	508	0	512	318	0	35	
4	0	0	0	0	508	0	519	318	0	35	
5	0	0	0	0	508	0	526	318	0	35	
6	0	0	0	0	508	0	531	318	0	34	
7	0	0	0	0	508	0	536	318	0	35	
8	0	0	0	0	508	0	543	318	0	35	
9	0	0	0	0	508	0	547	318	0	35	
10	0	0	0	0	508	0	551	318	0	35	
11	0	0	0	0	508	0	560	318	0	34	
12	0	0	0	0	508	0	563	318	0	35	
13	0	0	0	0	508	0	568	318	0	35	
14	0	0	0	0	508	0	572	318	0	35	
15	0	0	0	0	508	0	575	318	0	35	
0	0	0	0	0	508	0	575	318	0	34	
1	0	0	0	0	508	0	575	318	0	35	
2	0	0	0	0	508	0	579	318	0	35	
3	0	0	0	0	508	0	583	318	0	35	
4	0	0	0	0	508	0	583	318	0	35	
5	0	0	0	0	508	0	579	318	0	34	
6	0	0	0	0	508	0	575	318	0	34	
7	0	0	0	0	508	0	574	318	0	35	
8	0	0	0	0	508	0	568	318	0	34	
9	0	0	0	0	508	0	560	318	0	34	
10	0	0	0	0	508	0	553	318	0	34	
11	0	0	0	0	508	0	543	318	0	34	
12	0	0	0	0	508	0	537	318	0	35	
13	0	0	0	0	508	0	527	318	0	34	
14	0	0	0	0	508	0	519	318	0	34	
15	0	0	0	0	508	0	508	318	0	34	
0	0	0	0	0	508	0	496	318	0	34	
1	0	0	0	0	508	0	483	318	0	35	
2	0	0	0	0	508	0	472	318	0	34	
3	0	0	0	0	508	0	455	318	0	34	
4	0	0	0	0	508	0	444	318	0	34	
5	0	0	0	0	508	0	432	318	0	35	
6	0	0	0	0	508	0	417	318	0	34	
7	0	0	0	0	508	0	408	318	0	35	
8	0	0	0	0	508	0	399	318	0	34	
9	0	0	0	0	508	0	391	318	0	34	
10	0	0	0	0	508	0	387	318	0	35	
11	0	0	0	0	508	0	384	318	0	34	
12	0	0	0	0	508	0	384	318	0	34	
13	0	0	0	0	508	0	387	318	0	35	
14	0	0	0	0	508	0	391	318	0	34	
15	0	0	0	0	508	0	399	318	0	34	
0	0	0	0	0	508	0	408	318	0	35	
1	0	0	0	0	508	0	419	318	0	35	
2	0	0	0	0	508	0	432	318	0	35	
3	0	0	0	0	508	0	441	318	0	34	
4	0	0	0	0	508	0	451	318	0	35	
5	0	0	0	0	508	0	463	318	0	35	
6	0	0	0	0	508	0	472	318	0	35	
7	0	0	0	0	508	0	480	318	0	34	
8	0	0	0	0	508	0	486	318	0	34	
9	0	0	0	0	508	0	487	318	0	35	
10	0	0	0	0	508	0	492	318	0	35	
11	0	0	0	0	508	0	494	318	0	35	
12	0	0	0	0	508	0	494	318	0	35	
13	0	0	0	0	508	0	492	318	0	34	
14	0	0	0	0	508	0	492	318	0	35	
15	0	0	0	0	508	0	487	318	0	35	
0	0	0	0	0	508	0	487	318	0	35	
1	0	0	0	0	508	0	483	318	0	35	
2	0	0	0	0	508	0	481	318	0	34	
3	0	0	0	0	508	0	480	318	0	35	
4	0	0	0	0	508	0	480	318	0	35	
5	0	0	0	0	508	0	476	318	0	35	
6	0	0	0	0	508	0	476	318	0	35	
7	0	0	0	0	508	0	476	318	0	34	
8	0	0	0	0	508	0	476	318	0	34	
9	0	0	0	0	508	0	476	318	0	35	
10	0	0	0	0	508	0	476	318	0	34	
11	0	0	0	0	508	0	478	318	0	34	
12	0	0	0	0	508	0	480	318	0	34	
13	0	0	0	0	508	0	480	318	0	34	
14	0	0	0	0	508	0	480	318	0	35	
15	0	0	0	0	508	0	480	318	0	34	
0	0	0	0	0	508	0	480	318	0	34	
1	0	0	0	0	508	0	480	318	0	34	
2	0	0	0	0	508	0	480	318	0	34	
3	0	0	0	0	508	0	480	318	0	35	
4	0	0	0	0	508	0	480	318	0	34	
5	0	0	0	0	508	0	480	318	0	34	
6	0	0	0	0	508	0	480	318	0	34	
7	0	0	0	0	508	0	480	318	0	35	
8	0	0	0	0	508	0	480	318	0	35	
9	0	0	0	0	508	0	480	318	0	34	
10	0	0	0	0	508	0	480	318	0	34	
11	0	0	0	0	508	0	480	318	0	34	
12	0	0	0	0	508	0	480	318	0	34	
13	0	0	0	0	508	0	480	318	0	35	
14	0	0	0	0	508	0	480	318	0	35	
15	0	0	0	0	508	0	480	318	0	35	
0	0	0	0	0	508	0	480	318	0	34	
1	0	0	0	0	508	0	480	318	0	34	
2	0	0	0	0	508	0	480	318	0	35	
3	0	0	0	0	508	0	480	318	0	35	
4	0	0	0	0	508	0	480	318	0	35	
5	0	0	0	0	508	0	480	318	0	34	
6	0	0	0	0	508	0	478	318	0	34	
7	0	0	0	0	508	0	476	318	0	35	
8	0	0	0	0	508	0	476	318	0	35	
9	0	0	0	0	508	0	476	318	0	35	
10	0	0	0	0	508	0	476	318	0	34	
11	0	0	0	0	508	0	476	318	0	34	
12	0	0	0	0	508	0	476	318	0	35	
13	0	0	0	0	508	0	476	316	0	35	
14	0	0	0	0	508	0	476	316	0	35	
15	0	0	0	0	508	0	478	318	0	34	
0	0	0	0	0	508	0	480	318	0	35	
1	0	0	0	0	508	0	480	318	0	35	
2	0	0	0	0	508	0	480	318	0	35	
3	0	0	0	0	508	0	480	318	0	35	
4	0	0	0	0	508	0	480	318	0	34	
5	0	0	0	0	508	0	481	318	0	35	
6	0	0	0	0	508	0	483	318	0	35	
7	0	0	0	0	508	0	483	318	0	34	
8	0	0	0	0	508	0	483	318	0	34	
9	0	0	0	0	508	0	483	318	0	34	
10	0	0	0	0	508	0	483	318	0	34	
11	0	0	0	0	508	0	483	318	0	35	
12	0	0	0	0	508	0	483	318	0	34	
13	0	0	0	0	508	0	481	318	0	34	
14	0	0	0	0	508	0	481	318	0	34	
15	0	0	0	0	508	0	480	316	0	34	
0	0	0	0	0	508	0	480	318	0	35	
1	0	0	0	0	508	0	480	318	0	34	
2	0	0	0	0	508	0	480	318	0	34	
3	0	0	0	0	508	0	478	318	0	34	
4	0	0	0	0	508	0	478	318	0	34	
5	0	0	0	0	508	0	476	318	0	34	
6	0	0	0	0	508	0	476	318	0	35	
7	0	0	0	0	508	0	476	318	0	35	
8	0	0	0	0	508	0	478	318	0	34	
9	0	0	0	0	508	0	480	316	0	35	
10	0	0	0	0	508	0	480	318	0	35	
11	0	0	0	0	508	0	480	318	0	35	
12	0	0	0	0	508	0	480	318	0	35	
13	0	0	0	0	508	0	480	318	0	34	
14	0	0	0	0	508	0	481	318	0	35	
15	0	0	0	0	508	0	483	318	0	35	
0	0	0	0	0	508	0	483	318	0	35	
1	0	0	0	0	508	0	483	318	0	34	
2	0	0	0	0	508	0	486	318	0	34	
3	0	0	0	0	508	0	487	318	0	35	
4	0	0	0	0	508	0	487	318	0	35	
5	0	0	0	0	508	0	487	318	0	35	
6	0	0	0	0	508	0	487	318	0	34	
7	0	0	0	0	508	0	487	318	0	34	
8	0	0	0	0	508	0	487	318	0	35	
9	0	0	0	0	508	0	487	318	0	35	
10	0	0	0	0	508	0	486	318	0	35	
11	0	0	0	0	508	0	486	318	0	35	
12	0	0	0	0	508	0	486	318	0	34	
13	0	0	0	0	508	0	483	318	0	35	
14	0	0	0	0	508	0	483	316	0	35	
15	0	0	0	0	508	0	483	318	0	35	
0	0	0	0	0	508	0	483	318	0	35	
1	0	0	0	0	508	0	483	318	0	34	
2	0	0	0	0	508	0	483	318	0	35	
3	0	0	0	0	508	0	483	316	0	35	
4	0	0	0	0	508	0	483	316	0	35	
5	0	0	0	0	508	0	483	318	0	35	
6	0	0	0	0	508	0	483	318	0	34	
7	0	0	0	0	508	0	483	318	0	35	
8	0	0	0	0	508	0	483	318	0	35	
9	0	0	0	0	508	0	483	318	0	35	
10	0	0	0	0	508	0	486	318	0	35	
11	0	0	0	0	508	0	486	318	0	34	
12	0	0	0	0	508	0	487	316	0	35	
13	0	0	0	0	508	0	487	318	0	35	
14	0	0	0	0	508	0	487	318	0	35	
15	0	0	0	0	508	0	487	318	0	35	
0	0	0	0	0	508	0	487	318	0	34	
1	0	0	0	0	508	0	492	318	0	35	
2	0	0	0	0	508	0	492	318	0	35	
3	0	0	0	0	508	0	492	318	0	34	
4	0	0	0	0	508	0	492	318	0	34	
5	0	0	0	0	508	0	492	318	0	34	
6	0	0	0	0	508	0	494	316	0	34	
7	0	0	0	0	508	0	494	316	0	35	
8	0	0	0	0	508	0	494	316	0	34	
9	0	0	0	0	508	0	494	316	0	34	
10	0	0	0	0	508	0	494	318	0	34	
11	0	0	0	0	508	0	494	318	0	34	
12	0	0	0	0	508	0	494	318	0	35	
13	0	0	0	0	508	0	494	318	0	34	
14	0	0	0	0	508	0	494	318	0	34	
15	0	0	0	0	508	0	494	318	0	34	
0	0	0	0	0	508	0	494	318	0	34	
1	0	0	0	0	508	0	494	318	0	35	
2	0	0	0	0	508	0	494	318	0	34	
3	0	0	0	0	508	0	494	318	0	34	
4	0	0	0	0	508	0	494	318	0	34	
5	0	0	0	0	508	0	494	318	0	35	
6	0	0	0	0	508	0	494	318	0	34	
7	0	0	0	0	508	0	494	318	0	35	
8	0	0	0	0	508	0	494	318	0	35	
9	0	0	0	0	508	0	494	318	0	34	
10	0	0	0	0	508	0	494	318	0	35	
11	0	0	0	0	508	0	494	318	0	35	
12	0	0	0	0	508	0	494	318	0	34	
13	0	0	0	0	508	0	494	318	0	35	
14	0	0	0	0	508	0	494	318	0	34	
15	0	0	0	0	508	0	494	318	0	35	
0	0	0	0	0	508	0	496	318	0	35	
1	0	0	0	0	508	0	496	318	0	35	
2	0	0	0	0	508	0	496	318	0	35	
3	0	0	0	0	508	0	496	318	0	34	
4	0	0	0	0	508	0	496	318	0	35	
5	0	0	0	0	508	0	497	318	0	35	
6	0	0	0	0	508	0	499	318	0	35	
7	0	0	0	0	508	0	499	318	0	35	
8	0	0	0	0	508	0	502	318	0	34	
9	0	0	0	0	508	0	504	318	0	35	
10	0	0	0	0	508	0	504	318	0	35	
11	0	0	0	0	508	0	504	318	0	35	
12	0	0	0	0	508	0	504	318	0	35	
13	0	0	0	0	508	0	504	318	0	34	
14	0	0	0	0	508	0	504	318	0	35	
15	0	0	0	0	508	0	504	318	0	35	
0	0	0	0	0	508	0	504	318	0	35	
1	0	0	0	0	508	0	504	318	0	35	
2	0	0	0	0	508	0	504	318	0	34	
3	0	0	0	0	508	0	504	318	0	35	
4	0	0	0	0	508	0	504	318	0	35	
5	0	0	0	0	508	0	504	318	0	35	
6	0	0	0	0	508	0	504	318	0	35	
7	0	0	0	0	508	0	504	318	0	34	
8	0	0	0	0	508	0	504	318	0	35	
9	0	0	0	0	508	0	504	318	0	35	
10	0	0	0	0	508	0	505	316	0	34	
11	0	0	0	0	508	0	508	318	0	34	
12	0	0	0	0	508	0	508	318	0	34	
13	0	0	0	0	508	0	510	318	0	34	
14	0	0	0	0	508	0	511	318	0	35	
15	0	0	0	0	508	0	512	318	0	34	
0	0	0	0	0	508	0	512	318	0	34	
1	0	0	0	0	508	0	513	318	0	34	
2	0	0	0	0	508	0	515	318	0	34	
3	0	0	0	0	508	0	515	318	0	35	
4	0	0	0	0	508	0	515	318	0	34	
5	0	0	0	0	508	0	518	318	0	34	
6	0	0	0	0	508	0	518	318	0	34	
7	0	0	0	0	508	0	518	318	0	34	
8	0	0	0	0	508	0	519	318	0	35	
9	0	0	0	0	508	0	519	318	0	34	
10	0	0	0	0	508	0	519	318	0	35	
11	0	0	0	0	508	0	519	318	0	34	
12	0	0	0	0	508	0	519	318	0	35	
13	0	0	0	0	508	0	519	318	0	35	
14	0	0	0	0	508	0	519	318	0	35	
15	0	0	0	0	508	0	519	318	0	35	
0	0	0	0	0	508	0	518	318	0	34	
1	0	0	0	0	508	0	518	318	0	34	
2	0	0	0	0	508	0	518	318	0	35	
3	0	0	0	0	508	0	518	318	0	34	
4	0	0	0	0	508	0	518	318	0	35	
5	0	0	0	0	508	0	518	318	0	34	
6	0	0	0	0	508	0	519	318	0	35	
7	0	0	0	0	508	0	519	318	0	35	
8	0	0	0	0	508	0	519	318	0	34	
9	0	0	0	0	508	0	519	318	0	34	
10	0	0	0	0	508	0	519	318	0	34	
11	0	0	0	0	508	0	519	318	0	34	
12	0	0	0	0	508	0	518	318	0	35	
13	0	0	0	0	508	0	518	318	0	34	
14	0	0	0	0	508	0	518	318	0	35	
15	0	0	0	0	508	0	515	318	0	34	
0	0	0	0	0	508	0	515	318	0	35	
1	0	0	0	0	508	0	515	318	0	35	
2	0	0	0	0	508	0	515	318	0	34	
3	0	0	0	0	508	0	515	318	0	34	
4	0	0	0	0	508	0	515	318	0	34	
5	0	0	0	0	508	0	515	318	0	35	
6	0	0	0	0	508	0	515	318	0	35	
7	0	0	0	0	508	0	515	318	0	35	
8	0	0	0	0	508	0	515	318	0	35	
9	0	0	0	0	508	0	515	318	0	34	
10	0	0	0	0	508	0	515	318	0	35	
11	0	0	0	0	508	0	518	316	0	35	
12	0	0	0	0	508	0	518	318	0	35	
13	0	0	0	0	508	0	518	318	0	35	
14	0	0	0	0	508	0	519	318	0	34	
15	0	0	0	0	508	0	519	318	0	35	
0	0	0	0	0	508	0	519	318	0	35	
1	0	0	0	0	508	0	519	318	0	35	
2	0	0	0	0	508	0	518	318	0	35	
3	0	0	0	0	508	0	515	318	0	34	
4	0	0	0	0	508	0	515	318	0	35	
5	0	0	0	0	508	0	515	318	0	35	
6	0	0	0	0	508	0	513	318	0	35	
7	0	0	0	0	508	0	512	318	0	35	
8	0	0	0	0	508	0	511	318	0	34	
9	0	0	0	0	508	0	510	318	0	35	
10	0	0	0	0	508	0	508	318	0	35	
11	0	0	0	0	508	0	505	318	0	35	
12	0	0	0	0	508	0	504	318	0	34	
13	0	0	0	0	508	0	504	318	0	34	
14	0	0	0	0	508	0	504	318	0	35	
15	0	0	0	0	508	0	499	318	0	35	
0	0	0	0	0	508	0	499	318	0	34	
1	0	0	0	0	508	0	497	318	0	34	
2	0	0	0	0	508	0	496	318	0	34	
3	0	0	0	0	508	0	496	318	0	34	
4	0	0	0	0	508	0	496	318	0	35	
5	0	0	0	0	508	0	494	318	0	34	
6	0	0	0	0	508	0	492	318	0	34	
7	0	0	0	0	508	0	487	318	0	34	
8	0	0	0	0	508	0	487	318	0	34	
9	0	0	0	0	508	0	486	318	0	35	
10	0	0	0	0	508	0	483	318	0	34	
11	0	0	0	0	508	0	481	318	0	34	
12	0	0	0	0	508	0	480	318	0	34	
13	0	0	0	0	508	0	480	318	0	34	
14	0	0	0	0	508	0	478	318	0	35	
15	0	0	0	0	508	0	476	318	0	34	
0	0	0	0	0	508	0	476	318	0	34	
1	0	0	0	0	508	0	473	318	0	34	
2	0	0	0	0	508	0	472	318	0	34	
3	0	0	0	0	508	0	472	318	0	35	
4	0	0	0	0	508	0	472	318	0	34	
5	0	0	0	0	508	0	472	318	0	35	
6	0	0	0	0	508	0	472	318	0	34	
7	0	0	0	0	508	0	472	316	0	35	
8	0	0	0	0	508	0	472	318	0	35	
9	0	0	0	0	508	0	472	318	0	34	
10	0	0	0	0	508	0	472	318	0	35	
11	0	0	0	0	508	0	472	318	0	34	
12	0	0	0	0	508	0	472	318	0	35	
13	0	0	0	0	508	0	472	318	0	35	
14	0	0	0	0	508	0	472	318	0	35	
15	0	0	0	0	508	0	472	318	0	35	
0	0	0	0	0	508	0	472	318	0	34	
1	0	0	0	0	508	0	470	318	0	35	
2	0	0	0	0	508	0	467	318	0	35	
3	0	0	0	0	508	0	467	318	0	35	
4	0	0	0	0	508	0	467	318	0	35	
5	0	0	0	0	508	0	467	318	0	34	
6	0	0	0	0	508	0	467	318	0	35	
7	0	0	0	0	508	0	467	318	0	35	
8	0	0	0	0	508	0	467	318	0	35	
9	0	0	0	0	508	0	467	318	0	35	
10	0	0	0	0	508	0	467	318	0	34	
11	0	0	0	0	508	0	467	318	0	35	
12	0	0	0	0	508	0	467	318	0	35	
13	0	0	0	0	508	0	467	318	0	35	
14	0	0	0	0	508	0	467	318	0	35	
15	0	0	0	0	508	0	467	318	0	34	
0	0	0	0	0	508	0	467	318	0	35	
1	0	0	0	0	508	0	467	318	0	35	
2	0	0	0	0	508	0	467	318	0	35	
3	0	0	0	0	508	0	467	318	0	35	
4	0	0	0	0	508	0	467	318	0	34	
5	0	0	0	0	508	0	467	318	0	35	
6	0	0	0	0	508	0	467	318	0	35	
7	0	0	0	0	508	0	467	318	0	34	
8	0	0	0	0	508	0	467	318	0	34	
9	0	0	0	0	508	0	467	316	0	34	
10	0	0	0	0	508	0	467	318	0	34	
11	0	0	0	0	508	0	467	318	0	35	
12	0	0	0	0	508	0	467	318	0	34	
13	0	0	0	0	508	0	467	318	0	34	
14	0	0	0	0	508	0	467	318	0	34	
15	0	0	0	0	508	0	470	318	0	34	
0	0	0	0	0	508	0	470	316	0	35	
1	0	0	0	0	508	0	472	316	0	34	
2	0	0	0	0	508	0	472	316	0	34	
3	0	0	0	0	508	0	472	316	0	34	
4	0	0	0	0	508	0	472	316	0	35	
5	0	0	0	0	508	0	472	316	0	34	
6	0	0	0	0	508	0	472	318	0	35	
7	0	0	0	0	508	0	472	318	0	35	
8	0	0	0	0	508	0	470	318	0	34	
9	0	0	0	0	508	0	467	318	0	35	
10	0	0	0	0	508	0	467	318	0	35	
11	0	0	0	0	508	0	467	318	0	34	
12	0	0	0	0	508	0	465	318	0	35	
13	0	0	0	0	508	0	465	318	0	34	
14	0	0	0	0	508	0	463	318	0	35	
15	0	0	0	0	508	0	463	318	0	35	
0	0	0	0	0	508	0	463	318	0	35	
1	0	0	0	0	508	0	465	318	0	35	
2	0	0	0	0	508	0	465	316	0	34	
3	0	0	0	0	508	0	467	318	0	35	
4	0	0	0	0	508	0	467	318	0	35	
5	0	0	0	0	508	0	467	318	0	35	
6	0	0	0	0	508	0	472	318	0	35	
7	0	0	0	0	508	0	472	318	0	34	
8	0	0	0	0	508	0	472	318	0	35	
9	0	0	0	0	508	0	472	318	0	35	
10	0	0	0	0	508	0	472	318	0	35	
11	0	0	0	0	508	0	472	318	0	34	
12	0	0	0	0	508	0	473	318	0	34	
13	0	0	0	0	508	0	473	318	0	35	
14	0	0	0	0	508	0	473	318	0	35	
15	0	0	0	0	508	0	476	318	0	35	
0	0	0	0	0	508	0	476	318	0	35	
1	0	0	0	0	508	0	476	318	0	34	
2	0	0	0	0	508	0	476	318	0	35	
3	0	0	0	0	508	0	476	318	0	35	
4	0	0	0	0	508	0	476	318	0	35	
5	0	0	0	0	508	0	473	318	0	35	
6	0	0	0	0	508	0	472	318	0	34	
7	0	0	0	0	508	0	472	318	0	34	
8	0	0	0	0	508	0	472	318	0	35	
9	0	0	0	0	508	0	472	318	0	34	
10	0	0	0	0	508	0	472	318	0	34	
11	0	0	0	0	508	0	470	318	0	34	
12	0	0	0	0	508	0	467	318	0	34	
13	0	0	0	0	508	0	467	318	0	35	
14	0	0	0	0	508	0	467	318	0	34	
15	0	0	0	0	508	0	467	318	0	34	
0	0	0	0	0	508	0	467	318	0	34	
1	0	0	0	0	508	0	467	318	0	34	
2	0	0	0	0	508	0	470	318	0	35	
3	0	0	0	0	508	0	472	318	0	34	
4	0	0	0	0	508	0	472	318	0	35	
5	0	0	0	0	508	0	472	318	0	34	
6	0	0	0	0	508	0	472	318	0	35	
7	0	0	0	0	508	0	472	318	0	34	
8	0	0	0	0	508	0	472	318	0	35	
9	0	0	0	0	508	0	472	318	0	35	
10	0	0	0	0	508	0	472	318	0	34	
11	0	0	0	0	508	0	473	318	0	34	
12	0	0	0	0	508	0	473	318	0	35	
13	0	0	0	0	508	0	473	318	0	34	
14	0	0	0	0	508	0	472	318	0	35	
15	0	0	0	0	508	0	472	318	0	34	
0	0	0	0	0	508	0	472	318	0	34	
1	0	0	0	0	508	0	472	316	0	35	
2	0	0	0	0	508	0	472	318	0	34	
3	0	0	0	0	508	0	472	318	0	35	
4	0	0	0	0	508	0	472	318	0	34	
5	0	0	0	0	508	0	472	318	0	35	
6	0	0	0	0	508	0	472	318	0	35	
7	0	0	0	0	508	0	470	318	0	35	
8	0	0	0	0	508	0	470	318	0	35	
9	0	0	0	0	508	0	470	318	0	34	
10	0	0	0	0	508	0	470	318	0	35	
11	0	0	0	0	508	0	470	318	0	35	
12	0	0	0	0	508	0	470	318	0	35	
13	0	0	0	0	508	0	470	318	0	35	
14	0	0	0	0	508	0	472	318	0	34	
15	0	0	0	0	508	0	472	318	0	35	
0	0	0	0	0	508	0	472	318	0	35	
1	0	0	0	0	508	0	472	318	0	35	
2	0	0	0	0	508	0	472	318	0	35	
3	0	0	0	0	508	0	472	316	0	34	
4	0	0	0	0	508	0	472	318	0	35	
5	0	0	0	0	508	0	472	318	0	35	
6	0	0	0	0	508	0	472	318	0	35	
7	0	0	0	0	508	0	473	318	0	35	
8	0	0	0	0	508	0	473	318	0	34	
9	0	0	0	0	508	0	476	318	0	35	
10	0	0	0	0	508	0	476	318	0	35	
11	0	0	0	0	508	0	476	318	0	35	
12	0	0	0	0	508	0	476	318	0	35	
13	0	0	0	0	508	0	478	318	0	34	
14	0	0	0	0	508	0	480	318	0	34	
15	0	0	0	0	508	0	480	318	0	35	
0	0	0	0	0	508	0	480	318	0	35	
1	0	0	0	0	508	0	480	318	0	35	
2	0	0	0	0	508	0	480	318	0	34	
3	0	0	0	0	508	0	480	318	0	35	
4	0	0	0	0	508	0	480	318	0	35	
5	0	0	0	0	508	0	480	318	0	35	
6	0	0	0	0	508	0	480	318	0	35	
7	0	0	0	0	508	0	480	318	0	34	
8	0	0	0	0	508	0	478	318	0	35	
9	0	0	0	0	508	0	476	318	0	35	
10	0	0	0	0	508	0	476	318	0	35	
11	0	0	0	0	508	0	476	318	0	35	
12	0	0	0	0	508	0	476	318	0	34	
13	0	0	0	0	508	0	473	318	0	35	
14	0	0	0	0	508	0	473	318	0	35	
15	0	0	0	0	508	0	476	318	0	35	
0	0	0	0	0	508	0	476	318	0	34	
1	0	0	0	0	508	0	476	318	0	34	
2	0	0	0	0	508	0	476	318	0	35	
3	0	0	0	0	508	0	476	318	0	35	
4	0	0	0	0	508	0	478	318	0	34	
5	0	0	0	0	508	0	480	318	0	34	
6	0	0	0	0	508	0	480	318	0	34	
7	0	0	0	0	508	0	480	318	0	34	
8	0	0	0	0	508	0	480	318	0	35	
9	0	0	0	0	508	0	480	318	0	34	
10	0	0	0	0	508	0	480	318	0	34	
11	0	0	0	0	508	0	478	318	0	34	
12	0	0	0	0	508	0	478	318	0	34	
13	0	0	0	0	508	0	478	318	0	35	
14	0	0	0	0	508	0	476	318	0	34	
15	0	0	0	0	508	0	476	318	0	34	
0	0	0	0	0	508	0	476	318	0	34	
1	0	0	0	0	508	0	476	318	0	34	
2	0	0	0	0	508	0	478	318	0	35	
3	0	0	0	0	508	0	478	318	0	34	
4	0	0	0	0	508	0	480	318	0	34	
5	0	0	0	0	508	0	480	318	0	34	
6	0	0	0	0	508	0	480	318	0	34	
7	0	0	0	0	508	0	480	318	0	35	
8	0	0	0	0	508	0	480	318	0	34	
9	0	0	0	0	508	0	480	318	0	34	
10	0	0	0	0	508	0	480	318	0	34	
11	0	0	0	0	508	0	480	318	0	34	
12	0	0	0	0	508	0	480	318	0	35	
13	0	0	0	0	508	0	480	318	0	34	
14	0	0	0	0	508	0	480	318	0	34	
15	0	0	0	0	508	0	480	318	0	34	
0	0	0	0	0	508	0	480	318	0	35	
1	0	0	0	0	508	0	480	318	0	35	
2	0	0	0	0	508	0	480	318	0	34	
3	0	0	0	0	508	0	478	318	0	34	
4	0	0	0	0	508	0	476	318	0	34	
5	0	0	0	0	508	0	476	318	0	35	
6	0	0	0	0	508	0	476	318	0	35	
7	0	0	0	0	508	0	473	318	0	35	
8	0	0	0	0	508	0	472	318	0	35	
9	0	0	0	0	508	0	472	318	0	34	
10	0	0	0	0	508	0	472	318	0	35	
11	0	0	0	0	508	0	472	318	0	35	
12	0	0	0	0	508	0	472	318	0	35	
13	0	0	0	0	508	0	472	318	0	35	
14	0	0	0	0	508	0	472	318	0	34	
15	0	0	0	0	508	0	472	318	0	35	
0	0	0	0	0	508	0	472	318	0	35	
1	0	0	0	0	508	0	472	318	0	35	
2	0	0	0	0	508	0	476	318	0	35	
3	0	0	0	0	508	0	476	318	0	34	
4	0	0	0	0	508	0	478	318	0	35	
5	0	0	0	0	508	0	480	318	0	35	
6	0	0	0	0	508	0	480	318	0	35	
7	0	0	0	0	508	0	480	318	0	35	
8	0	0	0	0	508	0	480	318	0	34	
9	0	0	0	0	508	0	480	318	0	35	
10	0	0	0	0	508	0	480	318	0	35	
11	0	0	0	0	508	0	480	318	0	35	
12	0	0	0	0	508	0	480	318	0	35	
13	0	0	0	0	508	0	480	318	0	34	
14	0	0	0	0	508	0	480	318	0	34	
15	0	0	0	0	508	0	480	318	0	34	
0	0	0	0	0	508	0	480	318	0	34	
1	0	0	0	0	508	0	478	318	0	35	
2	0	0	0	0	508	0	476	318	0	34	
3	0	0	0	0	508	0	476	318	0	35	
4	0	0	0	0	508	0	476	316	0	34	
5	0	0	0	0	508	0	473	318	0	35	
6	0	0	0	0	508	0	473	318	0	34	
7	0	0	0	0	508	0	472	318	0	34	
8	0	0	0	0	508	0	472	318	0	35	
9	0	0	0	0	508	0	472	318	0	34	
10	0	0	0	0	508	0	473	318	0	35	
11	0	0	0	0	508	0	473	318	0	35	
12	0	0	0	0	508	0	476	318	0	34	
13	0	0	0	0	508	0	476	318	0	35	
14	0	0	0	0	508	0	476	318	0	35	
15	0	0	0	0	508	0	478	318	0	34	
0	0	0	0	0	508	0	480	318	0	34	
1	0	0	0	0	508	0	480	318	0	34	
2	0	0	0	0	508	0	480	318	0	34	
3	0	0	0	0	508	0	480	318	0	35	
4	0	0	0	0	508	0	480	318	0	34	
5	0	0	0	0	508	0	481	316	0	34	
6	0	0	0	0	508	0	481	318	0	34	
7	0	0	0	0	508	0	481	318	0	35	
8	0	0	0	0	508	0	481	318	0	35	
9	0	0	0	0	508	0	481	318	0	34	
10	0	0	0	0	508	0	480	318	0	35	
11	0	0	0	0	508	0	480	318	0	34	
12	0	0	0	0	508	0	480	318	0	35	
13	0	0	0	0	508	0	480	318	0	35	
14	0	0	0	0	508	0	480	318	0	35	
15	0	0	0	0	508	0	480	318	0	35	
0	0	0	0	0	508	0	480	318	0	34	
1	0	0	0	0	508	0	480	318	0	35	
2	0	0	0	0	508	0	480	318	0	35	
3	0	0	0	0	508	0	480	318	0	35	
4	0	0	0	0	508	0	480	318	0	35	
5	0	0	0	0	508	0	480	318	0	34	
6	0	0	0	0	508	0	480	318	0	35	
7	0	0	0	0	508	0	480	318	0	35	
8	0	0	0	0	508	0	480	318	0	35	
9	0	0	0	0	508	0	480	318	0	35	
10	0	0	0	0	508	0	480	318	0	34	
11	0	0	0	0	508	0	480	318	0	35	
12	0	0	0	0	508	0	480	318	0	35	
13	0	0	0	0	508	0	480	318	0	35	
14	0	0	0	0	508	0	480	318	0	35	
15	0	0	0	0	508	0	480	318	0	34	
0	0	0	0	0	508	0	480	316	0	35	
1	0	0	0	0	508	0	478	316	0	35	
2	0	0	0	0	508	0	478	318	0	35	
3	0	0	0	0	508	0	476	318	0	34	
4	0	0	0	0	508	0	476	318	0	34	
5	0	0	0	0	508	0	476	318	0	34	
6	0	0	0	0	508	0	476	318	0	35	
7	0	0	0	0	508	0	476	318	0	34	
8	0	0	0	0	508	0	476	318	0	34	
9	0	0	0	0	508	0	476	318	0	34	
10	0	0	0	0	508	0	476	318	0	34	
11	0	0	0	0	508	0	476	318	0	35	
12	0	0	0	0	508	0	476	318	0	34	
13	0	0	0	0	508	0	478	318	0	34	
14	0	0	0	0	508	0	478	318	0	34	
15	0	0	0	0	508	0	478	318	0	34	
0	0	0	0	0	508	0	480	318	0	35	
1	0	0	0	0	508	0	480	318	0	34	
2	0	0	0	0	508	0	480	318	0	34	
3	0	0	0	0	508	0	480	318	0	34	
4	0	0	0	0	508	0	480	318	0	34	
5	0	0	0	0	508	0	480	318	0	35	
6	0	0	0	0	508	0	480	318	0	34	
7	0	0	0	0	508	0	480	318	0	34	
8	0	0	0	0	508	0	480	318	0	34	
9	0	0	0	0	508	0	480	318	0	35	
10	0	0	0	0	508	0	480	318	0	35	
11	0	0	0	0	508	0	480	318	0	34	
12	0	0	0	0	508	0	480	316	0	34	
13	0	0	0	0	508	0	480	316	0	34	
14	0	0	0	0	508	0	478	318	0	35	
15	0	0	0	0	508	0	476	318	0	35	
0	0	0	0	0	508	0	476	318	0	35	
1	0	0	0	0	508	0	476	318	0	35	
2	0	0	0	0	508	0	476	318	0	34	
3	0	0	0	0	508	0	476	318	0	35	
4	0	0	0	0	508	0	476	318	0	35	
5	0	0	0	0	508	0	476	318	0	35	
6	0	0	0	0	508	0	478	318	0	34	
7	0	0	0	0	508	0	478	318	0	34	
8	0	0	0	0	508	0	480	318	0	35	
9	0	0	0	0	508	0	480	318	0	35	
10	0	0	0	0	508	0	480	318	0	35	
11	0	0	0	0	508	0	480	318	0	35	
12	0	0	0	0	508	0	480	318	0	34	
13	0	0	0	0	508	0	480	318	0	35	
14	0	0	0	0	508	0	480	318	0	35	
15	0	0	0	0	508	0	480	318	0	35	
0	0	0	0	0	508	0	480	318	0	35	
1	0	0	0	0	508	0	480	318	0	34	
2	0	0	0	0	508	0	480	318	0	35	
3	0	0	0	0	508	0	480	318	0	35	
4	0	0	0	0	508	0	480	318	0	35	
5	0	0	0	0	508	0	480	318	0	35	
6	0	0	0	0	508	0	478	318	0	34	
7	0	0	0	0	508	0	476	318	0	35	
8	0	0	0	0	508	0	476	318	0	34	
9	0	0	0	0	508	0	476	318	0	34	
10	0	0	0	0	508	0	476	318	0	34	
11	0	0	0	0	508	0	476	318	0	34	
12	0	0	0	0	508	0	476	318	0	35	
13	0	0	0	0	508	0	476	318	0	34	
14	0	0	0	0	508	0	478	318	0	35	
15	0	0	0	0	508	0	480	318	0	34	
0	0	0	0	0	508	0	480	318	0	34	
1	0	0	0	0	508	0	480	318	0	35	
2	0	0	0	0	508	0	480	318	0	34	
3	0	0	0	0	508	0	480	318	0	35	
4	0	0	0	0	508	0	481	318	0	34	
5	0	0	0	0	508	0	481	318	0	34	
6	0	0	0	0	508	0	481	318	0	34	
7	0	0	0	0	508	0	481	318	0	35	
8	0	0	0	0	508	0	480	318	0	34	
9	0	0	0	0	508	0	480	318	0	35	
10	0	0	0	0	508	0	480	318	0	34	
11	0	0	0	0	508	0	480	318	0	35	
12	0	0	0	0	508	0	478	318	0	35	
13	0	0	0	0	508	0	476	318	0	35	
14	0	0	0	0	508	0	476	318	0	35	
15	0	0	0	0	508	0	473	318	0	34	
0	0	0	0	0	508	0	473	318	0	35	
1	0	0	0	0	508	0	472	318	0	35	
2	0	0	0	0	508	0	472	318	0	35	
3	0	0	0	0	508	0	473	318	0	35	
4	0	0	0	0	508	0	473	318	0	34	
5	0	0	0	0	508	0	476	318	0	35	
6	0	0	0	0	508	0	476	318	0	35	
7	0	0	0	0	508	0	478	318	0	35	
8	0	0	0	0	508	0	480	318	0	35	
9	0	0	0	0	508	0	480	318	0	34	
10	0	0	0	0	508	0	480	318	0	35	
11	0	0	0	0	508	0	481	316	0	35	
12	0	0	0	0	508	0	481	318	0	35	
13	0	0	0	0	508	0	483	318	0	35	
14	0	0	0	0	508	0	483	318	0	34	
15	0	0	0	0	508	0	481	318	0	35	
0	0	0	0	0	508	0	481	318	0	35	
1	0	0	0	0	508	0	480	318	0	35	
2	0	0	0	0	508	0	480	318	0	35	
3	0	0	0	0	508	0	480	318	0	34	
4	0	0	0	0	508	0	480	318	0	35	
5	0	0	0	0	508	0	480	318	0	35	
6	0	0	0	0	508	0	478	318	0	35	
7	0	0	0	0	508	0	478	318	0	34	
8	0	0	0	0	508	0	476	318	0	34	
9	0	0	0	0	508	0	476	318	0	35	
10	0	0	0	0	508	0	478	318	0	34	
11	0	0	0	0	508	0	478	318	0	34	
12	0	0	0	0	508	0	480	318	0	34	
13	0	0	0	0	508	0	480	318	0	34	
14	0	0	0	0	508	0	480	318	0	35	
15	0	0	0	0	508	0	480	318	0	34	
0	0	0	0	0	508	0	480	318	0	35	
1	0	0	0	0	508	0	480	318	0	35	
2	0	0	0	0	508	0	481	318	0	34	
3	0	0	0	0	508	0	481	318	0	35	
4	0	0	0	0	508	0	481	318	0	35	
5	0	0	0	0	508	0	481	318	0	34	
6	0	0	0	0	508	0	483	318	0	34	
7	0	0	0	0	508	0	481	318	0	34	
8	0	0	0	0	508	0	481	318	0	35	
9	0	0	0	0	508	0	481	318	0	35	
10	0	0	0	0	508	0	480	318	0	34	
11	0	0	0	0	508	0	480	318	0	34	
12	0	0	0	0	508	0	480	318	0	34	
13	0	0	0	0	508	0	480	318	0	35	
14	0	0	0	0	508	0	480	318	0	35	
15	0	0	0	0	508	0	478	318	0	35	
0	0	0	0	0	508	0	476	318	0	34	
1	0	0	0	0	508	0	476	318	0	34	
2	0	0	0	0	508	0	476	318	0	35	
3	0	0	0	0	508	0	476	318	0	35	
4	0	0	0	0	508	0	473	318	0	34	
5	0	0	0	0	508	0	473	318	0	34	
6	0	0	0	0	508	0	473	318	0	34	
7	0	0	0	0	508	0	473	318	0	35	
8	0	0	0	0	508	0	473	318	0	35	
9	0	0	0	0	508	0	473	318	0	34	
10	0	0	0	0	508	0	476	318	0	34	
11	0	0	0	0	508	0	476	318	0	34	
12	0	0	0	0	508	0	476	318	0	35	
13	0	0	0	0	508	0	476	318	0	35	
14	0	0	0	0	508	0	476	318	0	35	
15	0	0	0	0	508	0	478	316	0	35	
0	0	0	0	0	508	0	480	318	0	34	
1	0	0	0	0	508	0	480	318	0	35	
2	0	0	0	0	508	0	480	318	0	35	
3	0	0	0	0	508	0	480	318	0	35	
4	0	0	0	0	508	0	480	318	0	35	
5	0	0	0	0	508	0	480	318	0	34	
6	0	0	0	0	508	0	480	318	0	35	
7	0	0	0	0	508	0	481	318	0	35	
8	0	0	0	0	508	0	483	318	0	35	
9	0	0	0	0	508	0	483	318	0	35	
10	0	0	0	0	508	0	483	318	0	34	
11	0	0	0	0	508	0	483	318	0	34	
12	0	0	0	0	508	0	486	318	0	35	
13	0	0	0	0	508	0	486	318	0	35	
14	0	0	0	0	508	0	486	318	0	35	
15	0	0	0	0	508	0	486	318	0	34	
0	0	0	0	0	508	0	486	318	0	35	
1	0	0	0	0	508	0	486	318	0	35	
2	0	0	0	0	508	0	486	318	0	35	
3	0	0	0	0	508	0	483	318	0	35	
4	0	0	0	0	508	0	483	318	0	34	
5	0	0	0	0	508	0	483	318	0	35	
6	0	0	0	0	508	0	481	318	0	35	
7	0	0	0	0	508	0	481	318	0	35	
8	0	0	0	0	508	0	480	318	0	35	
9	0	0	0	0	508	0	480	318	0	34	
10	0	0	0	0	508	0	480	318	0	35	
11	0	0	0	0	508	0	480	318	0	35	
12	0	0	0	0	508	0	480	318	0	35	
13	0	0	0	0	508	0	480	318	0	34	
14	0	0	0	0	508	0	480	318	0	34	
15	0	0	0	0	508	0	480	318	0	35	
0	0	0	0	0	508	0	481	318	0	35	
1	0	0	0	0	508	0	481	318	0	35	
2	0	0	0	0	508	0	483	318	0	34	
3	0	0	0	0	508	0	483	318	0	34	
4	0	0	0	0	508	0	486	318	0	35	
5	0	0	0	0	508	0	487	318	0	35	
6	0	0	0	0	508	0	487	318	0	35	
7	0	0	0	0	508	0	487	318	0	35	
8	0	0	0	0	508	0	487	318	0	34	
9	0	0	0	0	508	0	489	318	0	35	
10	0	0	0	0	508	0	492	318	0	35	
11	0	0	0	0	508	0	492	318	0	35	
12	0	0	0	0	508	0	492	318	0	35	
13	0	0	0	0	508	0	492	318	0	34	
14	0	0	0	0	508	0	494	318	0	35	
15	0	0	0	0	508	0	492	318	0	34	
0	0	0	0	0	508	0	492	318	0	35	
1	0	0	0	0	508	0	492	318	0	35	
2	0	0	0	0	508	0	492	318	0	34	
3	0	0	0	0	508	0	492	318	0	35	
4	0	0	0	0	508	0	487	318	0	34	
5	0	0	0	0	508	0	487	318	0	35	
6	0	0	0	0	508	0	487	318	0	35	
7	0	0	0	0	508	0	487	318	0	34	
8	0	0	0	0	508	0	487	318	0	35	
9	0	0	0	0	508	0	487	318	0	34	
10	0	0	0	0	508	0	487	318	0	35	
11	0	0	0	0	508	0	487	318	0	34	
12	0	0	0	0	508	0	487	316	0	34	
13	0	0	0	0	508	0	487	318	0	35	
14	0	0	0	0	508	0	487	318	0	34	
15	0	0	0	0	508	0	489	318	0	35	
0	0	0	0	0	508	0	492	318	0	35	
1	0	0	0	0	508	0	492	318	0	34	
2	0	0	0	0	508	0	494	318	0	35	
3	0	0	0	0	508	0	494	318	0	35	
4	0	0	0	0	508	0	496	318	0	34	
5	0	0	0	0	508	0	496	318	0	35	
6	0	0	0	0	508	0	496	318	0	34	
7	0	0	0	0	508	0	496	318	0	34	
8	0	0	0	0	508	0	496	318	0	35	
9	0	0	0	0	508	0	496	318	0	34	
10	0	0	0	0	508	0	496	318	0	34	
11	0	0	0	0	508	0	496	318	0	34	
12	0	0	0	0	508	0	494	318	0	35	
13	0	0	0	0	508	0	494	318	0	35	
14	0	0	0	0	508	0	494	318	0	35	
15	0	0	0	0	508	0	492	318	0	35	
0	0	0	0	0	508	0	492	318	0	34	
1	0	0	0	0	508	0	492	318	0	35	
2	0	0	0	0	508	0	492	318	0	35	
3	0	0	0	0	508	0	494	318	0	34	
4	0	0	0	0	508	0	494	318	0	35	
5	0	0	0	0	508	0	496	318	0	34	
6	0	0	0	0	508	0	496	318	0	35	
7	0	0	0	0	508	0	496	318	0	35	
8	0	0	0	0	508	0	496	318	0	34	
9	0	0	0	0	508	0	496	318	0	34	
10	0	0	0	0	508	0	496	318	0	34	
11	0	0	0	0	508	0	496	318	0	35	
12	0	0	0	0	508	0	494	318	0	35	
13	0	0	0	0	508	0	494	318	0	34	
14	0	0	0	0	508	0	492	318	0	34	
15	0	0	0	0	508	0	489	318	0	34	
0	0	0	0	0	508	0	487	318	0	35	
1	0	0	0	0	508	0	487	318	0	35	
2	0	0	0	0	508	0	486	318	0	34	
3	0	0	0	0	508	0	483	318	0	35	
4	0	0	0	0	508	0	481	318	0	34	
5	0	0	0	0	508	0	480	318	0	35	
6	0	0	0	0	508	0	480	318	0	35	
7	0	0	0	0	508	0	480	318	0	35	
8	0	0	0	0	508	0	478	318	0	35	
9	0	0	0	0	508	0	476	318	0	34	
10	0	0	0	0	508	0	476	318	0	34	
11	0	0	0	0	508	0	476	318	0	35	
12	0	0	0	0	508	0	473	318	0	35	
13	0	0	0	0	508	0	472	318	0	35	
14	0	0	0	0	508	0	472	318	0	34	
15	0	0	0	0	508	0	472	318	0	35	
0	0	0	0	0	508	0	472	318	0	35	
1	0	0	0	0	508	0	472	318	0	35	
2	0	0	0	0	508	0	472	318	0	35	
3	0	0	0	0	508	0	472	318	0	34	
4	0	0	0	0	508	0	472	318	0	35	
5	0	0	0	0	508	0	472	318	0	35	
6	0	0	0	0	508	0	472	318	0	35	
7	0	0	0	0	508	0	472	318	0	35	
8	0	0	0	0	508	0	472	318	0	34	
9	0	0	0	0	508	0	472	318	0	35	
10	0	0	0	0	508	0	472	318	0	35	
11	0	0	0	0	508	0	472	318	0	35	
12	0	0	0	0	508	0	472	318	0	35	
13	0	0	0	0	508	0	473	318	0	34	
14	0	0	0	0	508	0	473	318	0	35	
15	0	0	0	0	508	0	473	318	0	35	
0	0	0	0	0	508	0	473	318	0	35	
1	0	0	0	0	508	0	473	318	0	35	
2	0	0	0	0	508	0	473	318	0	34	
3	0	0	0	0	508	0	473	318	0	35	
4	0	0	0	0	508	0	476	318	0	35	
5	0	0	0	0	508	0	476	318	0	35	
6	0	0	0	0	508	0	476	318	0	34	
7	0	0	0	0	508	0	476	318	0	34	
8	0	0	0	0	508	0	476	318	0	35	
9	0	0	0	0	508	0	476	318	0	35	
10	0	0	0	0	508	0	476	318	0	34	
11	0	0	0	0	508	0	476	318	0	34	
12	0	0	0	0	508	0	476	318	0	34	
13	0	0	0	0	508	0	476	318	0	34	
14	0	0	0	0	508	0	476	318	0	35	
15	0	0	0	0	508	0	478	318	0	34	
0	0	0	0	0	508	0	478	318	0	34	
1	0	0	0	0	508	0	478	318	0	34	
2	0	0	0	0	508	0	478	318	0	34	
3	0	0	0	0	508	0	476	318	0	35	
4	0	0	0	0	508	0	476	318	0	34	
5	0	0	0	0	508	0	476	318	0	34	
6	0	0	0	0	508	0	476	318	0	34	
7	0	0	0	0	508	0	473	316	0	34	
8	0	0	0	0	508	0	473	318	0	35	
9	0	0	0	0	508	0	472	318	0	34	
10	0	0	0	0	508	0	472	318	0	34	
11	0	0	0	0	508	0	472	318	0	34	
12	0	0	0	0	508	0	472	318	0	35	
13	0	0	0	0	508	0	472	318	0	34	
14	0	0	0	0	508	0	472	318	0	35	
15	0	0	0	0	508	0	472	318	0	35	
0	0	0	0	0	508	0	473	318	0	34	
1	0	0	0	0	508	0	476	318	0	34	
2	0	0	0	0	508	0	480	318	0	34	
3	0	0	0	0	508	0	480	318	0	35	
4	0	0	0	0	508	0	486	318	0	35	
5	0	0	0	0	508	0	489	318	0	34	
6	0	0	0	0	508	0	496	318	0	35	
7	0	0	0	0	508	0	500	318	0	35	
8	0	0	0	0	508	0	505	318	0	34	
9	0	0	0	0	508	0	512	318	0	34	
10	0	0	0	0	508	0	518	318	0	34	
11	0	0	0	0	508	0	524	318	0	34	
12	0	0	0	0	508	0	527	318	0	35	
13	0	0	0	0	508	0	534	318	0	34	
14	0	0	0	0	508	0	537	318	0	34	
15	0	0	0	0	508	0	543	318	0	34	
0	0	0	0	0	508	0	547	318	0	35	
1	0	0	0	0	508	0	551	318	0	35	
2	0	0	0	0	508	0	560	318	0	34	
3	0	0	0	0	508	0	563	318	0	35	
4	0	0	0	0	508	0	568	318	0	34	
5	0	0	0	0	508	0	574	318	0	35	
6	0	0	0	0	508	0	575	318	0	35	
7	0	0	0	0	508	0	583	318	0	35	
8	0	0	0	0	508	0	588	318	0	35	
9	0	0	0	0	508	0	590	318	0	34	
10	0	0	0	0	508	0	591	318	0	35	
11	0	0	0	0	508	0	591	318	0	35	
12	0	0	0	0	508	0	590	318	0	35	
13	0	0	0	0	508	0	583	318	0	35	
14	0	0	0	0	508	0	579	318	0	34	
15	0	0	0	0	508	0	574	318	0	35	
0	0	0	0	0	508	0	566	318	0	35	
1	0	0	0	0	508	0	556	318	0	35	
2	0	0	0	0	508	0	547	318	0	35	
3	0	0	0	0	508	0	536	318	0	34	
4	0	0	0	0	508	0	526	318	0	35	
5	0	0	0	0	508	0	513	318	0	35	
6	0	0	0	0	508	0	504	318	0	35	
7	0	0	0	0	508	0	487	318	0	35	
8	0	0	0	0	508	0	476	318	0	34	
9	0	0	0	0	508	0	462	318	0	35	
10	0	0	0	0	508	0	448	318	0	35	
11	0	0	0	0	508	0	433	318	0	35	
12	0	0	0	0	508	0	422	318	0	35	
13	0	0	0	0	508	0	408	318	0	34	
14	0	0	0	0	508	0	399	318	0	35	
15	0	0	0	0	508	0	391	318	0	34	
0	0	0	0	0	508	0	385	318	0	35	
1	0	0	0	0	508	0	384	318	0	34	
2	0	0	0	0	508	0	384	318	0	34	
3	0	0	0	0	508	0	384	318	0	35	
4	0	0	0	0	508	0	387	318	0	34	
5	0	0	0	0	508	0	391	318	0	35	
6	0	0	0	0	508	0	401	318	0	35	
7	0	0	0	0	508	0	412	318	0	34	
8	0	0	0	0	508	0	423	318	0	35	
9	0	0	0	0	508	0	433	318	0	34	
10	0	0	0	0	508	0	448	318	0	35	
11	0	0	0	0	508	0	455	318	0	35	
12	0	0	0	0	508	0	463	318	0	34	
13	0	0	0	0	508	0	472	318	0	35	
14	0	0	0	0	508	0	480	318	0	35	
15	0	0	0	0	508	0	486	318	0	34	
0	0	0	0	0	508	0	487	318	0	34	
1	0	0	0	0	508	0	492	318	0	34	
2	0	0	0	0	508	0	492	318	0	35	
3	0	0	0	0	508	0	492	318	0	35	
4	0	0	0	0	508	0	492	318	0	34	
5	0	0	0	0	508	0	487	318	0	35	
6	0	0	0	0	508	0	487	318	0	34	
7	0	0	0	0	508	0	486	318	0	35	
8	0	0	0	0	508	0	483	318	0	34	
9	0	0	0	0	508	0	481	318	0	35	
10	0	0	0	0	508	0	480	318	0	35	
11	0	0	0	0	508	0	480	318	0	34	
12	0	0	0	0	508	0	480	318	0	35	
13	0	0	0	0	508	0	480	318	0	34	
14	0	0	0	0	508	0	480	318	0	34	
15	0	0	0	0	508	0	480	318	0	34	
0	0	0	0	0	508	0	480	318	0	34	
1	0	0	0	0	508	0	480	318	0	35	
2	0	0	0	0	508	0	480	318	0	35	
3	0	0	0	0	508	0	480	318	0	34	
4	0	0	0	0	508	0	480	318	0	35	
5	0	0	0	0	508	0	480	318	0	34	
6	0	0	0	0	508	0	480	318	0	34	
7	0	0	0	0	508	0	480	318	0	35	
8	0	0	0	0	508	0	480	318	0	35	
9	0	0	0	0	508	0	480	318	0	35	
10	0	0	0	0	508	0	476	318	0	34	
11	0	0	0	0	508	0	476	318	0	35	
12	0	0	0	0	508	0	473	318	0	35	
13	0	0	0	0	508	0	472	318	0	35	
14	0	0	0	0	508	0	472	318	0	35	
15	0	0	0	0	508	0	472	318	0	34	
0	0	0	0	0	508	0	472	318	0	35	
1	0	0	0	0	508	0	472	318	0	35	
2	0	0	0	0	508	0	472	318	0	35	
3	0	0	0	0	508	0	472	318	0	35	
4	0	0	0	0	508	0	472	318	0	34	
5	0	0	0	0	508	0	472	318	0	35	
6	0	0	0	0	508	0	472	318	0	35	
7	0	0	0	0	508	0	472	318	0	35	
8	0	0	0	0	508	0	473	318	0	35	
9	0	0	0	0	508	0	476	318	0	34	
10	0	0	0	0	508	0	476	318	0	35	
11	0	0	0	0	508	0	476	318	0	35	
12	0	0	0	0	508	0	478	318	0	35	
13	0	0	0	0	508	0	480	318	0	35	
14	0	0	0	0	508	0	480	318	0	34	
15	0	0	0	0	508	0	480	318	0	35	
0	0	0	0	0	508	0	480	318	0	34	
1	0	0	0	0	508	0	480	318	0	34	
2	0	0	0	0	508	0	480	318	0	35	
3	0	0	0	0	508	0	480	318	0	34	
4	0	0	0	0	508	0	480	318	0	35	
5	0	0	0	0	508	0	480	318	0	34	
6	0	0	0	0	508	0	480	318	0	35	
7	0	0	0	0	508	0	480	318	0	35	
8	0	0	0	0	508	0	480	318	0	34	
9	0	0	0	0	508	0	480	318	0	35	
10	0	0	0	0	508	0	480	318	0	34	
11	0	0	0	0	508	0	480	318	0	35	
12	0	0	0	0	508	0	480	318	0	35	
13	0	0	0	0	508	0	480	318	0	34	
14	0	0	0	0	508	0	480	318	0	34	
15	0	0	0	0	508	0	480	318	0	35	
0	0	0	0	0	508	0	480	318	0	34	
1	0	0	0	0	508	0	480	318	0	35	
2	0	0	0	0	508	0	480	318	0	34	
3	0	0	0	0	508	0	480	318	0	35	
4	0	0	0	0	508	0	480	318	0	35	
5	0	0	0	0	508	0	480	318	0	35	
6	0	0	0	0	508	0	480	318	0	35	
7	0	0	0	0	508	0	480	318	0	34	
8	0	0	0	0	508	0	480	318	0	35	
9	0	0	0	0	508	0	480	318	0	35	
10	0	0	0	0	508	0	480	318	0	35	
11	0	0	0	0	508	0	480	318	0	35	
12	0	0	0	0	508	0	480	318	0	34	
13	0	0	0	0	508	0	480	318	0	35	
14	0	0	0	0	508	0	480	318	0	35	
15	0	0	0	0	508	0	480	318	0	35	
0	0	0	0	0	508	0	480	318	0	35	
1	0	0	0	0	508	0	480	318	0	34	
2	0	0	0	0	508	0	480	318	0	35	
3	0	0	0	0	508	0	480	318	0	35	
4	0	0	0	0	508	0	480	318	0	35	
5	0	0	0	0	508	0	480	318	0	35	
6	0	0	0	0	508	0	480	318	0	34	
7	0	0	0	0	508	0	480	318	0	35	
8	0	0	0	0	508	0	481	318	0	35	
9	0	0	0	0	508	0	481	318	0	35	
10	0	0	0	0	508	0	483	318	0	35	
11	0	0	0	0	508	0	483	318	0	34	
12	0	0	0	0	508	0	483	318	0	35	
13	0	0	0	0	508	0	483	318	0	35	
14	0	0	0	0	508	0	486	318	0	35	
15	0	0	0	0	508	0	486	318	0	34	
0	0	0	0	0	508	0	486	318	0	34	
1	0	0	0	0	508	0	486	318	0	34	
2	0	0	0	0	508	0	486	318	0	35	
3	0	0	0	0	508	0	486	318	0	35	
4	0	0	0	0	508	0	486	318	0	35	
5	0	0	0	0	508	0	486	318	0	34	
6	0	0	0	0	508	0	486	318	0	35	
7	0	0	0	0	508	0	486	318	0	35	
8	0	0	0	0	508	0	487	318	0	35	
9	0	0	0	0	508	0	487	318	0	35	
10	0	0	0	0	508	0	487	318	0	34	
11	0	0	0	0	508	0	487	318	0	35	
12	0	0	0	0	508	0	489	318	0	35	
13	0	0	0	0	508	0	492	318	0	35	
14	0	0	0	0	508	0	492	318	0	35	
15	0	0	0	0	508	0	494	318	0	34	
0	0	0	0	0	508	0	494	318	0	35	
1	0	0	0	0	508	0	495	318	0	35	
2	0	0	0	0	508	0	496	316	0	35	
3	0	0	0	0	508	0	496	316	0	35	
4	0	0	0	0	508	0	494	318	0	34	
5	0	0	0	0	508	0	494	316	0	35	
6	0	0	0	0	508	0	494	316	0	34	
7	0	0	0	0	508	0	492	318	0	35	
8	0	0	0	0	508	0	492	318	0	34	
9	0	0	0	0	508	0	492	318	0	34	
10	0	0	0	0	508	0	489	318	0	35	
11	0	0	0	0	508	0	487	318	0	35	
12	0	0	0	0	508	0	487	318	0	34	
13	0	0	0	0	508	0	487	318	0	34	
14	0	0	0	0	508	0	487	318	0	34	
15	0	0	0	0	508	0	492	318	0	34	
0	0	0	0	0	508	0	492	318	0	35	
1	0	0	0	0	508	0	494	318	0	34	
2	0	0	0	0	508	0	496	318	0	34	
3	0	0	0	0	508	0	496	318	0	34	
4	0	0	0	0	508	0	499	318	0	34	
5	0	0	0	0	508	0	499	318	0	35	
6	0	0	0	0	508	0	502	318	0	34	
7	0	0	0	0	508	0	504	318	0	34	
8	0	0	0	0	508	0	504	318	0	34	
9	0	0	0	0	508	0	504	318	0	34	
10	0	0	0	0	508	0	504	318	0	35	
11	0	0	0	0	508	0	504	318	0	34	
12	0	0	0	0	508	0	499	318	0	34	
13	0	0	0	0	508	0	499	318	0	34	
14	0	0	0	0	508	0	497	316	0	34	
15	0	0	0	0	508	0	496	318	0	35	
0	0	0	0	0	508	0	496	318	0	34	
1	0	0	0	0	508	0	496	318	0	34	
2	0	0	0	0	508	0	496	318	0	34	
3	0	0	0	0	508	0	496	318	0	35	
4	0	0	0	0	508	0	496	318	0	35	
5	0	0	0	0	508	0	496	318	0	34	
6	0	0	0	0	508	0	496	318	0	34	
7	0	0	0	0	508	0	496	318	0	34	
8	0	0	0	0	508	0	497	318	0	35	
9	0	0	0	0	508	0	499	318	0	35	
10	0	0	0	0	508	0	499	316	0	34	
11	0	0	0	0	508	0	504	316	0	34	
12	0	0	0	0	508	0	504	318	0	34	
13	0	0	0	0	508	0	504	318	0	35	
14	0	0	0	0	508	0	508	318	0	35	
15	0	0	0	0	508	0	508	318	0	35	
0	0	0	0	0	508	0	510	316	0	35	
1	0	0	0	0	508	0	510	318	0	34	
2	0	0	0	0	508	0	510	318	0	35	
3	0	0	0	0	508	0	511	318	0	35	
4	0	0	0	0	508	0	510	318	0	35	
5	0	0	0	0	508	0	510	318	0	35	
6	0	0	0	0	508	0	510	318	0	34	
7	0	0	0	0	508	0	510	318	0	35	
8	0	0	0	0	508	0	510	318	0	35	
9	0	0	0	0	508	0	510	318	0	35	
10	0	0	0	0	508	0	510	318	0	35	
11	0	0	0	0	508	0	510	318	0	34	
12	0	0	0	0	508	0	510	318	0	35	
13	0	0	0	0	508	0	510	318	0	35	
14	0	0	0	0	508	0	510	318	0	35	
15	0	0	0	0	508	0	510	318	0	35	
0	0	0	0	0	508	0	510	318	0	34	
1	0	0	0	0	508	0	511	318	0	35	
2	0	0	0	0	508	0	511	318	0	35	
3	0	0	0	0	508	0	511	318	0	35	
4	0	0	0	0	508	0	512	318	0	35	
5	0	0	0	0	508	0	512	318	0	34	
6	0	0	0	0	508	0	513	318	0	34	
7	0	0	0	0	508	0	515	318	0	35	
8	0	0	0	0	508	0	515	318	0	34	
9	0	0	0	0	508	0	515	318	0	34	
10	0	0	0	0	508	0	518	318	0	34	
11	0	0	0	0	508	0	518	318	0	34	
12	0	0	0	0	508	0	519	318	0	35	
13	0	0	0	0	508	0	519	318	0	34	
14	0	0	0	0	508	0	519	318	0	34	
15	0	0	0	0	508	0	519	318	0	34	
0	0	0	0	0	508	0	519	318	0	34	
1	0	0	0	0	508	0	519	318	0	35	
2	0	0	0	0	508	0	519	318	0	34	
3	0	0	0	0	508	0	519	318	0	34	
4	0	0	0	0	508	0	519	318	0	34	
5	0	0	0	0	508	0	519	318	0	35	
6	0	0	0	0	508	0	519	318	0	34	
7	0	0	0	0	508	0	519	318	0	35	
8	0	0	0	0	508	0	519	318	0	35	
9	0	0	0	0	508	0	519	318	0	34	
10	0	0	0	0	508	0	519	318	0	35	
11	0	0	0	0	508	0	519	318	0	35	
12	0	0	0	0	508	0	519	318	0	34	
13	0	0	0	0	508	0	519	318	0	34	
14	0	0	0	0	508	0	524	318	0	34	
15	0	0	0	0	508	0	524	318	0	35	
0	0	0	0	0	508	0	524	318	0	35	
1	0	0	0	0	508	0	526	318	0	34	
2	0	0	0	0	508	0	526	318	0	34	
3	0	0	0	0	508	0	527	318	0	34	
4	0	0	0	0	508	0	527	318	0	35	
5	0	0	0	0	508	0	527	318	0	35	
6	0	0	0	0	508	0	527	318	0	35	
7	0	0	0	0	508	0	527	318	0	35	
8	0	0	0	0	508	0	527	318	0	34	
9	0	0	0	0	508	0	527	318	0	35	
10	0	0	0	0	508	0	527	318	0	35	
11	0	0	0	0	508	0	527	318	0	35	
12	0	0	0	0	508	0	527	318	0	35	
13	0	0	0	0	508	0	527	318	0	34	
14	0	0	0	0	508	0	527	318	0	34	
15	0	0	0	0	508	0	527	318	0	35	
0	0	0	0	0	508	0	527	318	0	35	
1	0	0	0	0	508	0	527	318	0	34	
2	0	0	0	0	508	0	527	318	0	34	
3	0	0	0	0	508	0	527	318	0	34	
4	0	0	0	0	508	0	527	318	0	35	
5	0	0	0	0	508	0	527	318	0	35	
6	0	0	0	0	508	0	526	318	0	35	
7	0	0	0	0	508	0	526	318	0	34	
8	0	0	0	0	508	0	524	318	0	35	
9	0	0	0	0	508	0	521	318	0	35	
10	0	0	0	0	508	0	519	318	0	35	
11	0	0	0	0	508	0	519	318	0	35	
12	0	0	0	0	508	0	518	318	0	34	
13	0	0	0	0	508	0	515	318	0	35	
14	0	0	0	0	508	0	512	318	0	35	
15	0	0	0	0	508	0	511	318	0	34	
0	0	0	0	0	508	0	510	318	0	34	
1	0	0	0	0	508	0	508	318	0	34	
2	0	0	0	0	508	0	504	318	0	34	
3	0	0	0	0	508	0	504	318	0	35	
4	0	0	0	0	508	0	504	318	0	34	
5	0	0	0	0	508	0	499	318	0	34	
6	0	0	0	0	508	0	497	318	0	34	
7	0	0	0	0	508	0	496	318	0	34	
8	0	0	0	0	508	0	495	318	0	35	
9	0	0	0	0	508	0	492	318	0	34	
10	0	0	0	0	508	0	492	318	0	34	
11	0	0	0	0	508	0	487	318	0	34	
12	0	0	0	0	508	0	487	318	0	35	
13	0	0	0	0	508	0	487	318	0	35	
14	0	0	0	0	508	0	487	318	0	35	
15	0	0	0	0	508	0	486	318	0	35	
0	0	0	0	0	508	0	483	318	0	34	
1	0	0	0	0	508	0	483	318	0	34	
2	0	0	0	0	508	0	483	318	0	35	
3	0	0	0	0	508	0	483	318	0	35	
4	0	0	0	0	508	0	481	316	0	35	
5	0	0	0	0	508	0	480	318	0	34	
6	0	0	0	0	508	0	480	318	0	35	
7	0	0	0	0	508	0	480	318	0	35	
8	0	0	0	0	508	0	480	318	0	35	
9	0	0	0	0	508	0	480	318	0	35	
10	0	0	0	0	508	0	480	318	0	34	
11	0	0	0	0	508	0	478	318	0	35	
12	0	0	0	0	508	0	476	318	0	35	
13	0	0	0	0	508	0	476	318	0	35	
14	0	0	0	0	508	0	476	318	0	35	
15	0	0	0	0	508	0	476	318	0	34	
0	0	0	0	0	508	0	476	318	0	35	
1	0	0	0	0	508	0	473	318	0	35	
2	0	0	0	0	508	0	473	318	0	35	
3	0	0	0	0	508	0	473	318	0	35	
4	0	0	0	0	508	0	472	318	0	34	
5	0	0	0	0	508	0	472	318	0	35	
6	0	0	0	0	508	0	472	318	0	35	
7	0	0	0	0	508	0	472	318	0	35	
8	0	0	0	0	508	0	472	318	0	35	
9	0	0	0	0	508	0	472	318	0	34	
10	0	0	0	0	508	0	472	318	0	35	
11	0	0	0	0	508	0	472	318	0	34	
12	0	0	0	0	508	0	472	318	0	35	
13	0	0	0	0	508	0	472	318	0	34	
14	0	0	0	0	508	0	472	318	0	34	
15	0	0	0	0	508	0	472	318	0	35	
0	0	0	0	0	508	0	470	318	0	34	
1	0	0	0	0	508	0	470	318	0	35	
2	0	0	0	0	508	0	467	318	0	34	
3	0	0	0	0	508	0	467	318	0	34	
4	0	0	0	0	508	0	467	318	0	35	
5	0	0	0	0	508	0	467	316	0	34	
6	0	0	0	0	508	0	467	316	0	35	
7	0	0	0	0	508	0	467	316	0	34	
8	0	0	0	0	508	0	470	318	0	34	
9	0	0	0	0	508	0	472	318	0	35	
10	0	0	0	0	508	0	472	318	0	35	
11	0	0	0	0	508	0	472	318	0	35	
12	0	0	0	0	508	0	472	318	0	35	
13	0	0	0	0	508	0	473	318	0	34	
14	0	0	0	0	508	0	476	318	0	35	
15	0	0	0	0	508	0	476	318	0	35	
0	0	0	0	0	508	0	476	318	0	35	
1	0	0	0	0	508	0	478	318	0	35	
2	0	0	0	0	508	0	478	318	0	34	
3	0	0	0	0	508	0	478	318	0	35	
4	0	0	0	0	508	0	478	318	0	35	
5	0	0	0	0	508	0	478	316	0	34	
6	0	0	0	0	508	0	476	318	0	34	
7	0	0	0	0	508	0	476	318	0	34	
8	0	0	0	0	508	0	476	318	0	34	
9	0	0	0	0	508	0	473	318	0	35	
10	0	0	0	0	508	0	472	318	0	34	
11	0	0	0	0	508	0	472	318	0	34	
12	0	0	0	0	508	0	472	318	0	34	
13	0	0	0	0	508	0	467	318	0	35	
14	0	0	0	0	508	0	467	318	0	35	
15	0	0	0	0	508	0	467	318	0	34	
0	0	0	0	0	508	0	465	316	0	34	
1	0	0	0	0	508	0	465	318	0	34	
2	0	0	0	0	508	0	465	316	0	35	
3	0	0	0	0	508	0	465	318	0	35	
4	0	0	0	0	508	0	465	318	0	35	
5	0	0	0	0	508	0	467	318	0	35	
6	0	0	0	0	508	0	467	318	0	34	
7	0	0	0	0	508	0	467	318	0	35	
8	0	0	0	0	508	0	470	318	0	35	
9	0	0	0	0	508	0	472	318	0	35	
10	0	0	0	0	508	0	472	318	0	35	
11	0	0	0	0	508	0	472	318	0	34	
12	0	0	0	0	508	0	472	318	0	35	
13	0	0	0	0	508	0	472	318	0	35	
14	0	0	0	0	508	0	472	318	0	35	
15	0	0	0	0	508	0	472	318	0	35	
0	0	0	0	0	508	0	472	318	0	34	
1	0	0	0	0	508	0	472	318	0	35	
2	0	0	0	0	508	0	472	318	0	35	
3	0	0	0	0	508	0	472	318	0	35	
4	0	0	0	0	508	0	470	318	0	35	
5	0	0	0	0	508	0	467	318	0	34	
6	0	0	0	0	508	0	467	318	0	35	
7	0	0	0	0	508	0	467	318	0	35	
8	0	0	0	0	508	0	467	318	0	35	
9	0	0	0	0	508	0	467	318	0	35	
10	0	0	0	0	508	0	467	318	0	34	
11	0	0	0	0	508	0	467	318	0	34	
12	0	0	0	0	508	0	470	318	0	34	
13	0	0	0	0	508	0	472	318	0	35	
14	0	0	0	0	508	0	472	318	0	35	
15	0	0	0	0	508	0	472	318	0	34	
0	0	0	0	0	508	0	472	318	0	35	
1	0	0	0	0	508	0	472	318	0	35	
2	0	0	0	0	508	0	472	318	0	35	
3	0	0	0	0	508	0	472	318	0	35	
4	0	0	0	0	508	0	472	318	0	34	
5	0	0	0	0	508	0	472	318	0	35	
6	0	0	0	0	508	0	472	318	0	35	
7	0	0	0	0	508	0	472	318	0	35	
8	0	0	0	0	508	0	472	318	0	35	
9	0	0	0	0	508	0	472	318	0	34	
10	0	0	0	0	508	0	472	318	0	35	
11	0	0	0	0	508	0	472	318	0	35	
12	0	0	0	0	508	0	472	318	0	35	
13	0	0	0	0	508	0	472	318	0	35	
14	0	0	0	0	508	0	472	318	0	34	
15	0	0	0	0	508	0	472	318	0	35	
0	0	0	0	0	508	0	472	318	0	35	
1	0	0	0	0	508	0	472	318	0	35	
2	0	0	0	0	508	0	472	318	0	35	
3	0	0	0	0	508	0	472	318	0	34	
4	0	0	0	0	508	0	472	318	0	35	
5	0	0	0	0	508	0	472	318	0	35	
6	0	0	0	0	508	0	472	318	0	35	
7	0	0	0	0	508	0	472	318	0	35	
8	0	0	0	0	508	0	472	318	0	34	
9	0	0	0	0	508	0	472	318	0	35	
10	0	0	0	0	508	0	472	318	0	34	
11	0	0	0	0	508	0	472	318	0	35	
12	0	0	0	0	508	0	472	318	0	34	
13	0	0	0	0	508	0	472	318	0	34	
14	0	0	0	0	508	0	472	318	0	35	
15	0	0	0	0	508	0	472	318	0	34	
0	0	0	0	0	508	0	472	318	0	35	
1	0	0	0	0	508	0	472	318	0	35	
2	0	0	0	0	508	0	472	318	0	34	
3	0	0	0	0	508	0	472	318	0	35	
4	0	0	0	0	508	0	472	318	0	34	
5	0	0	0	0	508	0	472	318	0	35	
6	0	0	0	0	508	0	472	318	0	35	
7	0	0	0	0	508	0	472	318	0	34	
8	0	0	0	0	508	0	472	318	0	35	
9	0	0	0	0	508	0	472	318	0	34	
10	0	0	0	0	508	0	472	318	0	35	
11	0	0	0	0	508	0	472	318	0	35	
12	0	0	0	0	508	0	472	318	0	34	
13	0	0	0	0	508	0	472	318	0	35	
14	0	0	0	0	508	0	472	318	0	35	
15	0	0	0	0	508	0	472	318	0	35	
0	0	0	0	0	508	0	472	318	0	35	
1	0	0	0	0	508	0	473	318	0	34	
2	0	0	0	0	508	0	473	318	0	35	
3	0	0	0	0	508	0	473	318	0	35	
4	0	0	0	0	508	0	476	318	0	35	
5	0	0	0	0	508	0	476	318	0	35	
6	0	0	0	0	508	0	476	318	0	34	
7	0	0	0	0	508	0	476	318	0	35	
8	0	0	0	0	508	0	476	318	0	35	
9	0	0	0	0	508	0	476	318	0	35	
10	0	0	0	0	508	0	473	318	0	35	
11	0	0	0	0	508	0	473	318	0	34	
12	0	0	0	0	508	0	473	318	0	35	
13	0	0	0	0	508	0	472	318	0	35	
14	0	0	0	0	508	0	472	318	0	35	
15	0	0	0	0	508	0	472	318	0	35	
0	0	0	0	0	508	0	472	318	0	34	
1	0	0	0	0	508	0	472	318	0	35	
2	0	0	0	0	508	0	472	318	0	35	
3	0	0	0	0	508	0	472	318	0	35	
4	0	0	0	0	508	0	472	318	0	35	
5	0	0	0	0	508	0	472	316	0	34	
6	0	0	0	0	508	0	472	318	0	35	
7	0	0	0	0	508	0	472	318	0	34	
8	0	0	0	0	508	0	472	318	0	35	
9	0	0	0	0	508	0	472	318	0	35	
10	0	0	0	0	508	0	472	318	0	34	
11	0	0	0	0	508	0	472	318	0	35	
12	0	0	0	0	508	0	472	318	0	34	
13	0	0	0	0	508	0	472	318	0	35	
14	0	0	0	0	508	0	472	318	0	34	
15	0	0	0	0	508	0	473	318	0	34	
0	0	0	0	0	508	0	473	318	0	35	
1	0	0	0	0	508	0	473	318	0	35	
2	0	0	0	0	508	0	476	318	0	34	
3	0	0	0	0	508	0	476	318	0	35	
4	0	0	0	0	508	0	476	318	0	34	
5	0	0	0	0	508	0	476	318	0	35	
6	0	0	0	0	508	0	476	318	0	35	
7	0	0	0	0	508	0	473	318	0	35	
8	0	0	0	0	508	0	472	318	0	35	
9	0	0	0	0	508	0	472	318	0	34	
10	0	0	0	0	508	0	472	318	0	35	
11	0	0	0	0	508	0	472	318	0	35	
12	0	0	0	0	508	0	472	318	0	34	
13	0	0	0	0	508	0	472	318	0	34	
14	0	0	0	0	508	0	472	318	0	34	
15	0	0	0	0	508	0	472	318	0	35	
0	0	0	0	0	508	0	472	318	0	35	
1	0	0	0	0	508	0	472	318	0	34	
2	0	0	0	0	508	0	472	318	0	35	
3	0	0	0	0	508	0	472	316	0	34	
4	0	0	0	0	508	0	472	318	0	35	
5	0	0	0	0	508	0	472	318	0	35	
6	0	0	0	0	508	0	473	316	0	35	
7	0	0	0	0	508	0	476	318	0	35	
8	0	0	0	0	508	0	476	318	0	34	
9	0	0	0	0	508	0	476	318	0	35	
10	0	0	0	0	508	0	476	318	0	35	
11	0	0	0	0	508	0	476	318	0	35	
12	0	0	0	0	508	0	478	318	0	35	
13	0	0	0	0	508	0	478	318	0	34	
14	0	0	0	0	508	0	478	318	0	35	
15	0	0	0	0	508	0	480	318	0	35	
0	0	0	0	0	508	0	478	318	0	35	
1	0	0	0	0	508	0	478	318	0	35	
2	0	0	0	0	508	0	478	318	0	34	
3	0	0	0	0	508	0	478	318	0	35	
4	0	0	0	0	508	0	476	318	0	35	
5	0	0	0	0	508	0	476	318	0	35	
6	0	0	0	0	508	0	476	316	0	35	
7	0	0	0	0	508	0	476	318	0	34	
8	0	0	0	0	508	0	476	318	0	35	
9	0	0	0	0	508	0	476	318	0	35	
10	0	0	0	0	508	0	476	318	0	35	
11	0	0	0	0	508	0	476	318	0	35	
12	0	0	0	0	508	0	476	318	0	34	
13	0	0	0	0	508	0	476	318	0	35	
14	0	0	0	0	508	0	476	318	0	34	
15	0	0	0	0	508	0	478	318	0	35	
0	0	0	0	0	508	0	478	318	0	35	
1	0	0	0	0	508	0	480	318	0	34	
2	0	0	0	0	508	0	480	318	0	35	
3	0	0	0	0	508	0	480	318	0	34	
4	0	0	0	0	510	0	480	318	0	35	
5	0	0	0	0	508	0	480	318	0	35	
6	0	0	0	0	508	0	480	318	0	34	
7	0	0	0	0	508	0	480	318	0	35	
8	0	0	0	0	508	0	480	318	0	34	
9	0	0	0	0	508	0	480	318	0	35	
10	0	0	0	0	508	0	480	318	0	35	
11	0	0	0	0	508	0	480	318	0	34	
12	0	0	0	0	508	0	480	318	0	35	
13	0	0	0	0	508	0	478	318	0	35	
14	0	0	0	0	508	0	478	318	0	34	
15	0	0	0	0	508	0	476	318	0	35	
0	0	0	0	0	508	0	476	318	0	34	
1	0	0	0	0	508	0	476	318	0	35	
2	0	0	0	0	508	0	476	318	0	35	
3	0	0	0	0	508	0	476	318	0	34	
4	0	0	0	0	508	0	476	318	0	35	
5	0	0	0	0	508	0	476	318	0	34	
6	0	0	0	0	508	0	476	318	0	35	
7	0	0	0	0	508	0	476	318	0	35	
8	0	0	0	0	508	0	476	318	0	34	
9	0	0	0	0	508	0	478	318	0	34	
10	0	0	0	0	508	0	480	318	0	34	
11	0	0	0	0	508	0	480	318	0	35	
12	0	0	0	0	508	0	480	318	0	34	
13	0	0	0	0	508	0	480	318	0	35	
14	0	0	0	0	508	0	480	318	0	35	
15	0	0	0	0	508	0	480	318	0	34	
0	0	0	0	0	508	0	480	318	0	35	
1	0	0	0	0	508	0	480	318	0	35	
2	0	0	0	0	508	0	480	318	0	35	
3	0	0	0	0	508	0	480	318	0	35	
4	0	0	0	0	508	0	480	318	0	34	
5	0	0	0	0	508	0	480	316	0	35	
6	0	0	0	0	508	0	480	318	0	35	
7	0	0	0	0	508	0	480	318	0	35	
8	0	0	0	0	508	0	478	318	0	35	
9	0	0	0	0	508	0	478	318	0	34	
10	0	0	0	0	508	0	478	318	0	35	
11	0	0	0	0	508	0	478	318	0	35	
12	0	0	0	0	508	0	476	318	0	35	
13	0	0	0	0	508	0	478	318	0	35	
14	0	0	0	0	508	0	478	318	0	34	
15	0	0	0	0	508	0	478	316	0	35	
0	0	0	0	0	508	0	478	318	0	35	
1	0	0	0	0	508	0	478	318	0	35	
2	0	0	0	0	508	0	478	316	0	34	
3	0	0	0	0	508	0	478	318	0	34	
4	0	0	0	0	508	0	478	316	0	35	
5	0	0	0	0	508	0	478	318	0	35	
6	0	0	0	0	508	0	478	318	0	35	
7	0	0	0	0	508	0	478	318	0	35	
8	0	0	0	0	508	0	478	318	0	34	
9	0	0	0	0	508	0	478	318	0	35	
10	0	0	0	0	508	0	478	318	0	35	
11	0	0	0	0	508	0	480	318	0	35	
12	0	0	0	0	508	0	480	318	0	35	
13	0	0	0	0	508	0	480	318	0	34	
14	0	0	0	0	508	0	480	318	0	35	
15	0	0	0	0	508	0	480	318	0	35	
0	0	0	0	0	508	0	480	318	0	35	
1	0	0	0	0	508	0	480	318	0	35	
2	0	0	0	0	508	0	480	318	0	34	
3	0	0	0	0	508	0	480	318	0	35	
4	0	0	0	0	508	0	480	318	0	35	
5	0	0	0	0	508	0	480	318	0	35	
6	0	0	0	0	508	0	480	318	0	35	
7	0	0	0	0	508	0	480	318	0	34	
8	0	0	0	0	508	0	480	318	0	35	
9	0	0	0	0	508	0	480	318	0	35	
10	0	0	0	0	508	0	480	318	0	35	
11	0	0	0	0	508	0	480	318	0	34	
12	0	0	0	0	508	0	480	318	0	34	
13	0	0	0	0	508	0	480	318	0	34	
14	0	0	0	0	508	0	480	318	0	35	
15	0	0	0	0	508	0	480	318	0	34	
0	0	0	0	0	508	0	480	318	0	34	
1	0	0	0	0	508	0	480	318	0	34	
2	0	0	0	0	508	0	480	318	0	34	
3	0	0	0	0	508	0	480	318	0	35	
4	0	0	0	0	508	0	480	318	0	34	
5	0	0	0	0	508	0	480	318	0	34	
6	0	0	0	0	508	0	480	318	0	34	
7	0	0	0	0	508	0	480	318	0	34	
8	0	0	0	0	508	0	480	318	0	35	
9	0	0	0	0	508	0	480	318	0	34	
10	0	0	0	0	508	0	480	318	0	34	
11	0	0	0	0	508	0	480	318	0	34	
12	0	0	0	0	508	0	480	318	0	34	
13	0	0	0	0	508	0	480	318	0	35	
14	0	0	0	0	508	0	480	318	0	34	
15	0	0	0	0	508	0	478	318	0	34	
0	0	0	0	0	508	0	476	316	0	34	
1	0	0	0	0	508	0	476	318	0	34	
2	0	0	0	0	508	0	476	318	0	35	
3	0	0	0	0	508	0	476	318	0	34	
4	0	0	0	0	508	0	476	318	0	35	
5	0	0	0	0	508	0	476	318	0	34	
6	0	0	0	0	508	0	476	318	0	35	
7	0	0	0	0	508	0	476	318	0	34	
8	0	0	0	0	508	0	476	318	0	34	
9	0	0	0	0	508	0	476	318	0	35	
10	0	0	0	0	508	0	476	318	0	34	
11	0	0	0	0	508	0	476	318	0	35	
12	0	0	0	0	508	0	478	318	0	35	
13	0	0	0	0	508	0	478	318	0	34	
14	0	0	0	0	508	0	480	318	0	35	
15	0	0	0	0	508	0	480	318	0	34	
0	0	0	0	0	508	0	480	318	0	34	
1	0	0	0	0	508	0	480	318	0	35	
2	0	0	0	0	508	0	480	318	0	34	
3	0	0	0	0	508	0	480	318	0	35	
4	0	0	0	0	508	0	480	318	0	34	
5	0	0	0	0	508	0	480	318	0	35	
6	0	0	0	0	508	0	480	318	0	35	
7	0	0	0	0	508	0	480	318	0	34	
8	0	0	0	0	508	0	480	318	0	34	
9	0	0	0	0	508	0	480	318	0	34	
10	0	0	0	0	508	0	480	318	0	35	
11	0	0	0	0	508	0	480	318	0	35	
12	0	0	0	0	508	0	480	318	0	34	
13	0	0	0	0	508	0	480	318	0	35	
14	0	0	0	0	508	0	478	316	0	34	
15	0	0	0	0	508	0	476	318	0	35	
0	0	0	0	0	508	0	476	318	0	34	
1	0	0	0	0	508	0	476	318	0	34	
2	0	0	0	0	508	0	476	318	0	35	
3	0	0	0	0	508	0	476	318	0	34	
4	0	0	0	0	508	0	476	318	0	35	
5	0	0	0	0	508	0	476	318	0	35	
6	0	0	0	0	508	0	478	318	0	34	
7	0	0	0	0	508	0	480	318	0	34	
8	0	0	0	0	508	0	480	318	0	34	
9	0	0	0	0	508	0	480	318	0	35	
10	0	0	0	0	508	0	480	318	0	35	
11	0	0	0	0	508	0	480	318	0	34	
12	0	0	0	0	508	0	480	318	0	35	
13	0	0	0	0	508	0	481	318	0	34	
14	0	0	0	0	508	0	481	318	0	35	
15	0	0	0	0	508	0	481	318	0	35	
0	0	0	0	0	508	0	481	318	0	34	
1	0	0	0	0	508	0	480	318	0	34	
2	0	0	0	0	508	0	480	318	0	34	
3	0	0	0	0	508	0	480	318	0	35	
4	0	0	0	0	508	0	480	318	0	35	
5	0	0	0	0	508	0	480	318	0	34	
6	0	0	0	0	508	0	480	318	0	34	
7	0	0	0	0	508	0	478	318	0	34	
8	0	0	0	0	508	0	478	318	0	35	
9	0	0	0	0	508	0	478	318	0	35	
10	0	0	0	0	508	0	478	318	0	34	
11	0	0	0	0	508	0	478	318	0	34	
12	0	0	0	0	508	0	478	318	0	34	
13	0	0	0	0	508	0	480	318	0	35	
14	0	0	0	0	508	0	480	318	0	35	
15	0	0	0	0	508	0	480	318	0	35	
0	0	0	0	0	508	0	480	318	0	35	
1	0	0	0	0	508	0	480	318	0	34	
2	0	0	0	0	508	0	480	318	0	35	
3	0	0	0	0	508	0	480	318	0	35	
4	0	0	0	0	508	0	480	318	0	35	
5	0	0	0	0	508	0	480	318	0	35	
6	0	0	0	0	508	0	480	318	0	34	
7	0	0	0	0	508	0	480	318	0	35	
8	0	0	0	0	508	0	480	318	0	35	
9	0	0	0	0	508	0	480	318	0	35	
10	0	0	0	0	508	0	480	318	0	35	
11	0	0	0	0	508	0	480	318	0	34	
12	0	0	0	0	508	0	480	318	0	35	
13	0	0	0	0	508	0	480	318	0	35	
14	0	0	0	0	508	0	480	318	0	35	
15	0	0	0	0	508	0	480	318	0	35	
0	0	0	0	0	508	0	480	318	0	34	
1	0	0	0	0	508	0	480	318	0	35	
2	0	0	0	0	508	0	480	318	0	35	
3	0	0	0	0	508	0	480	318	0	35	
4	0	0	0	0	508	0	480	318	0	35	
5	0	0	0	0	508	0	480	318	0	34	
6	0	0	0	0	508	0	480	318	0	35	
7	0	0	0	0	508	0	480	318	0	35	
8	0	0	0	0	508	0	480	318	0	34	
9	0	0	0	0	508	0	480	318	0	34	
10	0	0	0	0	508	0	480	318	0	34	
11	0	0	0	0	508	0	480	318	0	34	
12	0	0	0	0	508	0	480	318	0	35	
13	0	0	0	0	508	0	480	318	0	34	
14	0	0	0	0	508	0	480	318	0	34	
15	0	0	0	0	508	0	480	318	0	34	
0	0	0	0	0	508	0	480	318	0	34	
1	0	0	0	0	508	0	480	318	0	35	
2	0	0	0	0	508	0	480	318	0	35	
3	0	0	0	0	508	0	480	318	0	34	
4	0	0	0	0	508	0	480	318	0	34	
5	0	0	0	0	508	0	480	318	0	35	
6	0	0	0	0	508	0	480	318	0	34	
7	0	0	0	0	508	0	480	318	0	35	
8	0	0	0	0	508	0	480	318	0	34	
9	0	0	0	0	508	0	480	318	0	34	
10	0	0	0	0	508	0	480	318	0	35	
11	0	0	0	0	508	0	480	318	0	35	
12	0	0	0	0	508	0	480	318	0	35	
13	0	0	0	0	508	0	480	318	0	35	
14	0	0	0	0	508	0	480	318	0	34	
15	0	0	0	0	508	0	480	318	0	35	
0	0	0	0	0	508	0	480	318	0	35	
1	0	0	0	0	508	0	480	318	0	35	
2	0	0	0	0	508	0	480	318	0	35	
3	0	0	0	0	508	0	480	318	0	34	
4	0	0	0	0	508	0	480	318	0	35	
5	0	0	0	0	508	0	480	318	0	35	
6	0	0	0	0	508	0	480	318	0	35	
7	0	0	0	0	508	0	480	318	0	35	
8	0	0	0	0	508	0	480	318	0	34	
9	0	0	0	0	508	0	480	318	0	35	
10	0	0	0	0	508	0	480	318	0	35	
11	0	0	0	0	508	0	480	318	0	35	
12	0	0	0	0	508	0	480	318	0	35	
13	0	0	0	0	508	0	480	318	0	34	
14	0	0	0	0	508	0	480	316	0	35	
15	0	0	0	0	508	0	480	318	0	35	
0	0	0	0	0	508	0	480	318	0	35	
1	0	0	0	0	508	0	480	318	0	34	
2	0	0	0	0	508	0	480	318	0	34	
3	0	0	0	0	508	0	480	318	0	35	
4	0	0	0	0	508	0	480	318	0	35	
5	0	0	0	0	508	0	480	316	0	35	
6	0	0	0	0	508	0	480	318	0	35	
7	0	0	0	0	508	0	481	318	0	34	
8	0	0	0	0	508	0	481	318	0	35	
9	0	0	0	0	508	0	481	318	0	35	
10	0	0	0	0	508	0	481	318	0	35	
11	0	0	0	0	508	0	481	318	0	35	
12	0	0	0	0	508	0	481	318	0	34	
13	0	0	0	0	508	0	481	318	0	35	
14	0	0	0	0	508	0	481	318	0	35	
15	0	0	0	0	508	0	480	318	0	35	
0	0	0	0	0	508	0	480	318	0	35	
1	0	0	0	0	508	0	480	316	0	34	
2	0	0	0	0	508	0	480	316	0	35	
3	0	0	0	0	508	0	480	318	0	35	
4	0	0	0	0	508	0	480	318	0	35	
5	0	0	0	0	508	0	480	318	0	35	
6	0	0	0	0	508	0	480	318	0	34	
7	0	0	0	0	508	0	480	318	0	34	
8	0	0	0	0	508	0	480	318	0	35	
9	0	0	0	0	508	0	480	318	0	34	
10	0	0	0	0	508	0	480	318	0	34	
11	0	0	0	0	508	0	480	318	0	34	
12	0	0	0	0	508	0	480	318	0	34	
13	0	0	0	0	508	0	480	318	0	35	
14	0	0	0	0	508	0	481	318	0	34	
15	0	0	0	0	508	0	483	318	0	34	
0	0	0	0	0	508	0	483	318	0	34	
1	0	0	0	0	508	0	486	318	0	34	
2	0	0	0	0	508	0	487	318	0	35	
3	0	0	0	0	508	0	487	318	0	34	
4	0	0	0	0	508	0	487	318	0	34	
5	0	0	0	0	508	0	487	318	0	34	
6	0	0	0	0	508	0	487	318	0	34	
7	0	0	0	0	508	0	489	318	0	35	
8	0	0	0	0	508	0	492	318	0	34	
9	0	0	0	0	508	0	492	318	0	34	
10	0	0	0	0	508	0	492	318	0	34	
11	0	0	0	0	508	0	492	318	0	35	
12	0	0	0	0	508	0	492	318	0	35	
13	0	0	0	0	508	0	492	318	0	34	
14	0	0	0	0	508	0	492	318	0	34	
15	0	0	0	0	508	0	492	318	0	34	
0	0	0	0	0	508	0	492	318	0	35	
1	0	0	0	0	508	0	492	318	0	35	
2	0	0	0	0	508	0	492	318	0	34	
3	0	0	0	0	508	0	494	318	0	34	
4	0	0	0	0	508	0	494	318	0	34	
5	0	0	0	0	508	0	494	318	0	35	
6	0	0	0	0	508	0	494	318	0	35	
7	0	0	0	0	508	0	494	318	0	35	
8	0	0	0	0	508	0	494	318	0	35	
9	0	0	0	0	508	0	494	318	0	34	
10	0	0	0	0	508	0	494	318	0	35	
11	0	0	0	0	508	0	494	318	0	35	
12	0	0	0	0	508	0	494	318	0	35	
13	0	0	0	0	508	0	494	318	0	35	
14	0	0	0	0	508	0	494	318	0	34	
15	0	0	0	0	508	0	494	318	0	35	
0	0	0	0	0	508	0	496	318	0	35	
1	0	0	0	0	508	0	496	318	0	35	
2	0	0	0	0	508	0	496	318	0	35	
3	0	0	0	0	508	0	496	318	0	34	
4	0	0	0	0	508	0	496	318	0	35	
5	0	0	0	0	508	0	496	318	0	35	
6	0	0	0	0	508	0	497	318	0	35	
7	0	0	0	0	508	0	499	318	0	35	
8	0	0	0	0	508	0	499	318	0	34	
9	0	0	0	0	508	0	499	318	0	35	
10	0	0	0	0	508	0	499	318	0	35	
11	0	0	0	0	508	0	502	318	0	35	
12	0	0	0	0	508	0	502	318	0	35	
13	0	0	0	0	508	0	502	318	0	34	
14	0	0	0	0	508	0	499	318	0	35	
15	0	0	0	0	508	0	499	318	0	35	
0	0	0	0	0	508	0	499	318	0	34	
1	0	0	0	0	508	0	499	318	0	34	
2	0	0	0	0	508	0	499	318	0	34	
3	0	0	0	0	508	0	497	318	0	34	
4	0	0	0	0	508	0	497	318	0	35	
5	0	0	0	0	508	0	497	318	0	34	
6	0	0	0	0	508	0	496	318	0	34	
7	0	0	0	0	508	0	496	318	0	34	
8	0	0	0	0	508	0	496	318	0	34	
9	0	0	0	0	508	0	496	318	0	35	
10	0	0	0	0	508	0	496	318	0	34	
11	0	0	0	0	508	0	496	318	0	34	
12	0	0	0	0	508	0	494	318	0	34	
13	0	0	0	0	508	0	492	318	0	34	
14	0	0	0	0	508	0	492	318	0	35	
15	0	0	0	0	508	0	492	318	0	34	
0	0	0	0	0	508	0	487	318	0	34	
1	0	0	0	0	508	0	487	318	0	34	
2	0	0	0	0	508	0	487	318	0	35	
3	0	0	0	0	508	0	486	318	0	35	
4	0	0	0	0	508	0	483	318	0	34	
5	0	0	0	0	508	0	483	318	0	35	
6	0	0	0	0	508	0	480	318	0	34	
7	0	0	0	0	508	0	480	318	0	35	
8	0	0	0	0	508	0	480	318	0	34	
9	0	0	0	0	508	0	478	318	0	34	
10	0	0	0	0	508	0	476	318	0	34	
11	0	0	0	0	508	0	476	318	0	34	
12	0	0	0	0	508	0	473	318	0	35	
13	0	0	0	0	508	0	473	318	0	35	
14	0	0	0	0	508	0	473	318	0	34	
15	0	0	0	0	508	0	472	318	0	34	
0	0	0	0	0	508	0	473	318	0	34	
1	0	0	0	0	508	0	473	318	0	35	
2	0	0	0	0	508	0	473	318	0	35	
3	0	0	0	0	508	0	476	318	0	34	
4	0	0	0	0	508	0	476	318	0	34	
5	0	0	0	0	508	0	476	318	0	34	
6	0	0	0	0	508	0	476	318	0	35	
7	0	0	0	0	508	0	476	318	0	35	
8	0	0	0	0	508	0	476	318	0	35	
9	0	0	0	0	508	0	476	318	0	35	
10	0	0	0	0	508	0	476	318	0	34	
11	0	0	0	0	508	0	476	318	0	35	
12	0	0	0	0	508	0	476	318	0	35	
13	0	0	0	0	508	0	476	318	0	35	
14	0	0	0	0	508	0	476	318	0	35	
15	0	0	0	0	508	0	476	318	0	34	
0	0	0	0	0	508	0	476	318	0	35	
1	0	0	0	0	508	0	476	318	0	35	
2	0	0	0	0	508	0	476	318	0	35	
3	0	0	0	0	508	0	476	318	0	35	
4	0	0	0	0	508	0	476	318	0	34	
5	0	0	0	0	508	0	476	318	0	35	
6	0	0	0	0	508	0	478	318	0	35	
7	0	0	0	0	508	0	478	318	0	35	
8	0	0	0	0	508	0	480	318	0	35	
9	0	0	0	0	508	0	480	318	0	34	
10	0	0	0	0	508	0	480	318	0	35	
11	0	0	0	0	508	0	480	318	0	35	
12	0	0	0	0	508	0	480	318	0	35	
13	0	0	0	0	508	0	480	318	0	35	
14	0	0	0	0	508	0	480	318	0	34	
15	0	0	0	0	508	0	478	318	0	35	
0	0	0	0	0	508	0	478	318	0	34	
1	0	0	0	0	508	0	476	318	0	34	
2	0	0	0	0	508	0	476	318	0	34	
3	0	0	0	0	508	0	476	318	0	34	
4	0	0	0	0	508	0	476	318	0	35	
5	0	0	0	0	508	0	473	318	0	34	
6	0	0	0	0	508	0	473	318	0	35	
7	0	0	0	0	508	0	473	318	0	35	
8	0	0	0	0	508	0	473	318	0	34	
9	0	0	0	0	508	0	473	318	0	34	
10	0	0	0	0	508	0	473	318	0	35	
11	0	0	0	0	508	0	473	318	0	34	
12	0	0	0	0	508	0	473	318	0	34	
13	0	0	0	0	508	0	476	318	0	34	
14	0	0	0	0	508	0	476	318	0	34	
15	0	0	0	0	508	0	476	318	0	35	
0	0	0	0	0	508	0	476	318	0	34	
1	0	0	0	0	508	0	476	318	0	34	
2	0	0	0	0	508	0	480	318	0	34	
3	0	0	0	0	508	0	480	318	0	34	
4	0	0	0	0	508	0	483	318	0	35	
5	0	0	0	0	508	0	487	318	0	34	
6	0	0	0	0	508	0	489	318	0	34	
7	0	0	0	0	508	0	496	318	0	34	
8	0	0	0	0	508	0	499	318	0	35	
9	0	0	0	0	508	0	504	318	0	34	
10	0	0	0	0	508	0	510	318	0	34	
11	0	0	0	0	508	0	515	318	0	35	
12	0	0	0	0	508	0	519	318	0	34	
13	0	0	0	0	508	0	526	318	0	35	
14	0	0	0	0	508	0	529	318	0	35	
15	0	0	0	0	508	0	536	318	0	35	
0	0	0	0	0	508	0	542	318	0	35	
1	0	0	0	0	508	0	547	318	0	34	
2	0	0	0	0	508	0	551	318	0	35	
3	0	0	0	0	508	0	560	318	0	35	
4	0	0	0	0	508	0	563	318	0	35	
5	0	0	0	0	508	0	568	318	0	35	
6	0	0	0	0	508	0	575	318	0	34	
7	0	0	0	0	508	0	575	318	0	35	
8	0	0	0	0	508	0	583	318	0	35	
9	0	0	0	0	508	0	588	318	0	35	
10	0	0	0	0	508	0	591	318	0	35	
11	0	0	0	0	508	0	591	318	0	34	
12	0	0	0	0	508	0	591	318	0	35	
13	0	0	0	0	508	0	591	318	0	35	
14	0	0	0	0	508	0	588	318	0	35	
15	0	0	0	0	508	0	583	318	0	35	
0	0	0	0	0	508	0	575	318	0	34	
1	0	0	0	0	508	0	568	318	0	35	
2	0	0	0	0	508	0	560	318	0	35	
3	0	0	0	0	508	0	547	318	0	35	
4	0	0	0	0	508	0	540	318	0	35	
5	0	0	0	0	508	0	527	318	0	34	
6	0	0	0	0	508	0	513	318	0	35	
7	0	0	0	0	508	0	499	318	0	34	
8	0	0	0	0	508	0	487	318	0	35	
9	0	0	0	0	508	0	472	318	0	35	
10	0	0	0	0	508	0	455	318	0	34	
11	0	0	0	0	508	0	440	318	0	35	
12	0	0	0	0	508	0	423	318	0	34	
13	0	0	0	0	508	0	408	316	0	35	
14	0	0	0	0	508	0	391	318	0	35	
15	0	0	0	0	508	0	384	318	0	34	
0	0	0	0	0	508	0	374	318	0	35	
1	0	0	0	0	508	0	368	318	0	34	
2	0	0	0	0	508	0	361	318	0	35	
3	0	0	0	0	508	0	359	318	0	35	
4	0	0	0	0	508	0	364	318	0	34	
5	0	0	0	0	508	0	368	318	0	35	
6	0	0	0	0	508	0	376	318	0	35	
7	0	0	0	0	508	0	385	318	0	34	
8	0	0	0	0	508	0	398	318	0	34	
9	0	0	0	0	508	0	412	318	0	34	
10	0	0	0	0	508	0	423	318	0	35	
11	0	0	0	0	508	0	440	318	0	35	
12	0	0	0	0	508	0	449	318	0	34	
13	0	0	0	0	508	0	463	318	0	34	
14	0	0	0	0	508	0	472	318	0	34	
15	0	0	0	0	508	0	480	318	0	35	
0	0	0	0	0	508	0	487	318	0	34	
1	0	0	0	0	508	0	494	318	0	35	
2	0	0	0	0	508	0	496	318	0	35	
3	0	0	0	0	508	0	497	318	0	34	
4	0	0	0	0	508	0	499	318	0	35	
5	0	0	0	0	508	0	497	318	0	35	
6	0	0	0	0	508	0	496	318	0	34	
7	0	0	0	0	508	0	496	318	0	34	
8	0	0	0	0	508	0	492	318	0	34	
9	0	0	0	0	508	0	487	318	0	35	
10	0	0	0	0	508	0	487	318	0	35	
11	0	0	0	0	508	0	486	318	0	34	
12	0	0	0	0	508	0	483	318	0	34	
13	0	0	0	0	508	0	480	318	0	34	
14	0	0	0	0	508	0	480	318	0	35	
15	0	0	0	0	508	0	480	318	0	35	
0	0	0	0	0	508	0	478	318	0	34	
1	0	0	0	0	508	0	476	318	0	34	
2	0	0	0	0	508	0	476	318	0	34	
3	0	0	0	0	508	0	476	318	0	35	
4	0	0	0	0	508	0	476	318	0	34	
5	0	0	0	0	508	0	476	318	0	35	
6	0	0	0	0	508	0	476	318	0	35	
7	0	0	0	0	508	0	476	318	0	34	
8	0	0	0	0	508	0	476	318	0	35	
9	0	0	0	0	508	0	476	318	0	35	
10	0	0	0	0	508	0	476	318	0	34	
11	0	0	0	0	508	0	476	318	0	35	
12	0	0	0	0	508	0	476	318	0	34	
13	0	0	0	0	508	0	476	318	0	35	
14	0	0	0	0	508	0	476	318	0	35	
15	0	0	0	0	508	0	476	318	0	35	
0	0	0	0	0	508	0	478	318	0	35	
1	0	0	0	0	508	0	478	318	0	34	
2	0	0	0	0	508	0	478	318	0	35	
3	0	0	0	0	508	0	480	318	0	35	
4	0	0	0	0	508	0	480	318	0	35	
5	0	0	0	0	508	0	480	318	0	35	
6	0	0	0	0	508	0	480	318	0	34	
7	0	0	0	0	508	0	480	318	0	35	
8	0	0	0	0	508	0	480	318	0	35	
9	0	0	0	0	508	0	480	318	0	35	
10	0	0	0	0	508	0	480	318	0	35	
11	0	0	0	0	508	0	480	318	0	34	
12	0	0	0	0	508	0	480	318	0	35	
13	0	0	0	0	508	0	478	318	0	35	
14	0	0	0	0	508	0	478	318	0	35	
15	0	0	0	0	508	0	476	318	0	35	
0	0	0	0	0	508	0	476	318	0	34	
1	0	0	0	0	508	0	476	318	0	35	
2	0	0	0	0	508	0	473	318	0	35	
3	0	0	0	0	508	0	473	318	0	35	
4	0	0	0	0	508	0	472	318	0	35	
5	0	0	0	0	508	0	472	318	0	34	
6	0	0	0	0	508	0	472	318	0	35	
7	0	0	0	0	508	0	472	318	0	35	
8	0	0	0	0	508	0	473	318	0	35	
9	0	0	0	0	508	0	473	318	0	35	
10	0	0	0	0	508	0	476	318	0	34	
11	0	0	0	0	508	0	476	318	0	35	
12	0	0	0	0	508	0	476	318	0	35	
13	0	0	0	0	508	0	480	318	0	35	
14	0	0	0	0	508	0	480	318	0	35	
15	0	0	0	0	508	0	480	318	0	34	
0	0	0	0	0	508	0	480	318	0	35	
1	0	0	0	0	508	0	480	318	0	35	
2	0	0	0	0	508	0	481	318	0	35	
3	0	0	0	0	508	0	483	318	0	35	
4	0	0	0	0	508	0	483	318	0	34	
5	0	0	0	0	508	0	483	318	0	35	
6	0	0	0	0	508	0	483	318	0	35	
7	0	0	0	0	508	0	483	318	0	35	
8	0	0	0	0	508	0	483	318	0	35	
9	0	0	0	0	508	0	483	318	0	34	
10	0	0	0	0	508	0	483	318	0	35	
11	0	0	0	0	508	0	483	318	0	35	
12	0	0	0	0	508	0	483	318	0	35	
13	0	0	0	0	508	0	483	318	0	35	
14	0	0	0	0	508	0	481	318	0	34	
15	0	0	0	0	508	0	481	318	0	35	
0	0	0	0	0	508	0	480	318	0	35	
1	0	0	0	0	508	0	480	318	0	35	
2	0	0	0	0	508	0	480	318	0	35	
3	0	0	0	0	508	0	480	318	0	34	
4	0	0	0	0	508	0	480	318	0	35	
5	0	0	0	0	508	0	480	318	0	35	
6	0	0	0	0	508	0	480	318	0	35	
7	0	0	0	0	508	0	480	318	0	35	
8	0	0	0	0	508	0	480	318	0	34	
9	0	0	0	0	508	0	480	318	0	34	
10	0	0	0	0	508	0	480	318	0	35	
11	0	0	0	0	508	0	480	318	0	34	
12	0	0	0	0	508	0	480	318	0	34	
13	0	0	0	0	508	0	480	318	0	34	
14	0	0	0	0	508	0	481	318	0	34	
15	0	0	0	0	508	0	481	318	0	35	
0	0	0	0	0	508	0	483	318	0	34	
1	0	0	0	0	508	0	483	318	0	34	
2	0	0	0	0	508	0	483	318	0	34	
3	0	0	0	0	508	0	483	318	0	34	
4	0	0	0	0	508	0	483	318	0	35	
5	0	0	0	0	508	0	483	318	0	34	
6	0	0	0	0	508	0	483	318	0	34	
7	0	0	0	0	508	0	483	318	0	34	
8	0	0	0	0	508	0	483	318	0	34	
9	0	0	0	0	508	0	483	318	0	35	
10	0	0	0	0	508	0	483	318	0	34	
11	0	0	0	0	508	0	481	318	0	34	
12	0	0	0	0	508	0	481	318	0	34	
13	0	0	0	0	508	0	481	318	0	34	
14	0	0	0	0	508	0	481	318	0	35	
15	0	0	0	0	508	0	480	318	0	35	
0	0	0	0	0	508	0	481	318	0	35	
1	0	0	0	0	508	0	481	318	0	34	
2	0	0	0	0	508	0	481	318	0	35	
3	0	0	0	0	508	0	481	318	0	34	
4	0	0	0	0	508	0	483	318	0	35	
5	0	0	0	0	508	0	483	318	0	35	
6	0	0	0	0	508	0	483	318	0	34	
7	0	0	0	0	508	0	486	318	0	35	
8	0	0	0	0	508	0	487	318	0	34	
9	0	0	0	0	508	0	487	318	0	34	
10	0	0	0	0	508	0	487	318	0	35	
11	0	0	0	0	508	0	487	318	0	34	
12	0	0	0	0	508	0	487	318	0	35	
13	0	0	0	0	508	0	487	318	0	35	
14	0	0	0	0	508	0	487	318	0	34	
15	0	0	0	0	508	0	487	318	0	34	
0	0	0	0	0	508	0	487	318	0	34	
1	0	0	0	0	508	0	487	318	0	34	
2	0	0	0	0	508	0	487	318	0	35	
3	0	0	0	0	508	0	487	318	0	34	
4	0	0	0	0	508	0	487	318	0	35	
5	0	0	0	0	508	0	487	318	0	34	
6	0	0	0	0	508	0	487	318	0	35	
7	0	0	0	0	508	0	487	318	0	35	
8	0	0	0	0	508	0	487	318	0	35	
9	0	0	0	0	508	0	487	318	0	35	
10	0	0	0	0	508	0	487	318	0	34	
11	0	0	0	0	508	0	487	318	0	35	
12	0	0	0	0	508	0	487	318	0	35	
13	0	0	0	0	508	0	487	318	0	35	
14	0	0	0	0	508	0	487	318	0	35	
15	0	0	0	0	508	0	487	318	0	34	
0	0	0	0	0	508	0	487	318	0	35	
1	0	0	0	0	508	0	492	318	0	35	
2	0	0	0	0	508	0	492	318	0	35	
3	0	0	0	0	508	0	492	318	0	35	
4	0	0	0	0	508	0	494	318	0	34	
5	0	0	0	0	508	0	496	318	0	35	
6	0	0	0	0	508	0	496	318	0	35	
7	0	0	0	0	508	0	496	318	0	35	
8	0	0	0	0	508	0	497	318	0	35	
9	0	0	0	0	508	0	499	318	0	34	
10	0	0	0	0	508	0	499	318	0	35	
11	0	0	0	0	508	0	499	318	0	35	
12	0	0	0	0	508	0	502	318	0	35	
13	0	0	0	0	508	0	504	318	0	35	
14	0	0	0	0	508	0	504	318	0	34	
15	0	0	0	0	508	0	504	318	0	35	
0	0	0	0	0	508	0	504	318	0	34	
1	0	0	0	0	508	0	504	318	0	35	
2	0	0	0	0	508	0	504	318	0	35	
3	0	0	0	0	508	0	504	318	0	34	
4	0	0	0	0	508	0	504	318	0	35	
5	0	0	0	0	508	0	504	318	0	34	
6	0	0	0	0	508	0	504	318	0	35	
7	0	0	0	0	508	0	504	318	0	34	
8	0	0	0	0	508	0	504	318	0	34	
9	0	0	0	0	508	0	504	318	0	35	
10	0	0	0	0	508	0	504	318	0	34	
11	0	0	0	0	508	0	504	318	0	35	
12	0	0	0	0	508	0	504	318	0	34	
13	0	0	0	0	508	0	504	318	0	34	
14	0	0	0	0	508	0	505	318	0	34	
15	0	0	0	0	508	0	505	318	0	35	
0	0	0	0	0	508	0	505	318	0	34	
1	0	0	0	0	508	0	508	318	0	35	
2	0	0	0	0	508	0	508	318	0	34	
3	0	0	0	0	508	0	508	318	0	35	
4	0	0	0	0	508	0	510	318	0	35	
5	0	0	0	0	508	0	510	318	0	35	
6	0	0	0	0	508	0	511	318	0	35	
7	0	0	0	0	508	0	512	318	0	34	
8	0	0	0	0	508	0	512	318	0	35	
9	0	0	0	0	508	0	513	318	0	35	
10	0	0	0	0	508	0	515	318	0	35	
11	0	0	0	0	508	0	518	318	0	35	
12	0	0	0	0	508	0	519	318	0	34	
13	0	0	0	0	508	0	519	318	0	35	
14	0	0	0	0	508	0	519	318	0	35	
15	0	0	0	0	508	0	519	318	0	35	
0	0	0	0	0	508	0	521	318	0	35	
1	0	0	0	0	508	0	524	318	0	34	
2	0	0	0	0	508	0	524	318	0	35	
3	0	0	0	0	508	0	524	318	0	35	
4	0	0	0	0	508	0	524	318	0	35	
5	0	0	0	0	508	0	524	318	0	35	
6	0	0	0	0	508	0	524	318	0	34	
7	0	0	0	0	508	0	526	318	0	35	
8	0	0	0	0	508	0	526	318	0	35	
9	0	0	0	0	508	0	526	318	0	35	
10	0	0	0	0	508	0	526	318	0	35	
11	0	0	0	0	508	0	526	318	0	34	
12	0	0	0	0	508	0	526	318	0	35	
13	0	0	0	0	508	0	526	318	0	35	
14	0	0	0	0	508	0	526	318	0	35	
15	0	0	0	0	508	0	526	318	0	35	
0	0	0	0	0	508	0	526	318	0	34	
1	0	0	0	0	508	0	526	316	0	35	
2	0	0	0	0	508	0	524	318	0	34	
3	0	0	0	0	508	0	524	318	0	34	
4	0	0	0	0	508	0	524	318	0	35	
5	0	0	0	0	508	0	524	318	0	34	
6	0	0	0	0	508	0	524	318	0	35	
7	0	0	0	0	508	0	524	318	0	34	
8	0	0	0	0	508	0	524	318	0	35	
9	0	0	0	0	508	0	524	318	0	35	
10	0	0	0	0	508	0	524	318	0	34	
11	0	0	0	0	508	0	524	318	0	35	
12	0	0	0	0	508	0	524	318	0	35	
13	0	0	0	0	508	0	524	318	0	34	
14	0	0	0	0	508	0	524	318	0	34	
15	0	0	0	0	508	0	524	318	0	34	
0	0	0	0	0	508	0	521	318	0	35	
1	0	0	0	0	508	0	519	318	0	35	
2	0	0	0	0	508	0	519	318	0	34	
3	0	0	0	0	508	0	519	318	0	35	
4	0	0	0	0	508	0	519	318	0	34	
5	0	0	0	0	508	0	519	318	0	35	
6	0	0	0	0	508	0	518	318	0	35	
7	0	0	0	0	508	0	515	318	0	35	
8	0	0	0	0	508	0	515	318	0	35	
9	0	0	0	0	508	0	515	318	0	34	
10	0	0	0	0	508	0	515	318	0	35	
11	0	0	0	0	508	0	513	318	0	35	
12	0	0	0	0	508	0	513	318	0	35	
13	0	0	0	0	508	0	512	318	0	35	
14	0	0	0	0	508	0	512	318	0	34	
15	0	0	0	0	508	0	512	318	0	35	
0	0	0	0	0	508	0	511	318	0	35	
1	0	0	0	0	508	0	511	318	0	35	
2	0	0	0	0	508	0	510	318	0	35	
3	0	0	0	0	508	0	508	318	0	34	
4	0	0	0	0	508	0	508	318	0	35	
5	0	0	0	0	508	0	504	318	0	35	
6	0	0	0	0	508	0	504	318	0	35	
7	0	0	0	0	508	0	504	318	0	35	
8	0	0	0	0	508	0	499	318	0	34	
9	0	0	0	0	508	0	497	318	0	35	
10	0	0	0	0	508	0	496	318	0	35	
11	0	0	0	0	508	0	494	318	0	35	
12	0	0	0	0	508	0	492	318	0	35	
13	0	0	0	0	508	0	487	318	0	34	
14	0	0	0	0	508	0	487	318	0	35	
15	0	0	0	0	508	0	486	318	0	35	
0	0	0	0	0	508	0	483	318	0	35	
1	0	0	0	0	508	0	481	318	0	35	
2	0	0	0	0	508	0	480	318	0	34	
3	0	0	0	0	508	0	480	318	0	35	
4	0	0	0	0	508	0	480	318	0	35	
5	0	0	0	0	508	0	478	318	0	35	
6	0	0	0	0	508	0	476	318	0	35	
7	0	0	0	0	508	0	476	318	0	34	
8	0	0	0	0	508	0	473	318	0	35	
9	0	0	0	0	508	0	473	318	0	35	
10	0	0	0	0	508	0	472	318	0	34	
11	0	0	0	0	508	0	472	318	0	34	
12	0	0	0	0	508	0	472	318	0	34	
13	0	0	0	0	508	0	472	318	0	34	
14	0	0	0	0	508	0	472	318	0	35	
15	0	0	0	0	508	0	472	318	0	34	
0	0	0	0	0	508	0	472	318	0	34	
1	0	0	0	0	508	0	470	318	0	34	
2	0	0	0	0	508	0	467	318	0	34	
3	0	0	0	0	508	0	467	318	0	35	
4	0	0	0	0	508	0	467	318	0	34	
5	0	0	0	0	508	0	467	318	0	34	
6	0	0	0	0	508	0	465	318	0	34	
7	0	0	0	0	508	0	465	318	0	34	
8	0	0	0	0	508	0	465	318	0	35	
9	0	0	0	0	508	0	463	318	0	34	
10	0	0	0	0	508	0	463	318	0	34	
11	0	0	0	0	508	0	463	318	0	34	
12	0	0	0	0	508	0	465	318	0	34	
13	0	0	0	0	508	0	465	318	0	35	
14	0	0	0	0	508	0	465	318	0	34	
15	0	0	0	0	508	0	465	318	0	34	
0	0	0	0	0	508	0	465	318	0	34	
1	0	0	0	0	508	0	465	318	0	34	
2	0	0	0	0	508	0	465	318	0	35	
3	0	0	0	0	508	0	465	318	0	34	
4	0	0	0	0	508	0	463	318	0	35	
5	0	0	0	0	508	0	463	318	0	34	
6	0	0	0	0	508	0	463	318	0	35	
7	0	0	0	0	508	0	463	318	0	35	
8	0	0	0	0	508	0	463	318	0	35	
9	0	0	0	0	508	0	463	318	0	35	
10	0	0	0	0	508	0	463	318	0	34	
11	0	0	0	0	508	0	463	318	0	35	
12	0	0	0	0	508	0	463	318	0	34	
13	0	0	0	0	508	0	463	318	0	34	
14	0	0	0	0	508	0	463	318	0	35	
15	0	0	0	0	508	0	463	318	0	34	
0	0	0	0	0	508	0	463	318	0	35	
1	0	0	0	0	508	0	463	318	0	34	
2	0	0	0	0	508	0	465	318	0	35	
3	0	0	0	0	508	0	465	318	0	35	
4	0	0	0	0	508	0	467	318	0	34	
5	0	0	0	0	508	0	467	318	0	35	
6	0	0	0	0	508	0	467	318	0	35	
7	0	0	0	0	508	0	467	318	0	34	
8	0	0	0	0	508	0	467	316	0	34	
9	0	0	0	0	508	0	467	318	0	34	
10	0	0	0	0	508	0	465	318	0	35	
11	0	0	0	0	508	0	465	318	0	35	
12	0	0	0	0	508	0	465	318	0	34	
13	0	0	0	0	508	0	463	318	0	35	
14	0	0	0	0	508	0	463	318	0	34	
15	0	0	0	0	508	0	463	318	0	35	
0	0	0	0	0	508	0	463	318	0	34	
1	0	0	0	0	508	0	463	318	0	35	
2	0	0	0	0	508	0	463	318	0	35	
3	0	0	0	0	508	0	463	318	0	34	
4	0	0	0	0	508	0	463	318	0	35	
5	0	0	0	0	508	0	463	318	0	35	
6	0	0	0	0	508	0	463	318	0	34	
7	0	0	0	0	508	0	463	318	0	34	
8	0	0	0	0	508	0	465	318	0	34	
9	0	0	0	0	508	0	465	318	0	35	
10	0	0	0	0	508	0	465	318	0	35	
11	0	0	0	0	508	0	465	318	0	34	
12	0	0	0	0	508	0	467	318	0	35	
13	0	0	0	0	508	0	467	318	0	34	
14	0	0	0	0	508	0	467	318	0	35	
15	0	0	0	0	508	0	467	318	0	35	
0	0	0	0	0	508	0	467	318	0	34	
1	0	0	0	0	508	0	467	318	0	34	
2	0	0	0	0	508	0	467	318	0	34	
3	0	0	0	0	508	0	467	318	0	35	
4	0	0	0	0	508	0	467	318	0	34	
5	0	0	0	0	508	0	467	318	0	35	
6	0	0	0	0	508	0	467	318	0	35	
7	0	0	0	0	508	0	467	318	0	34	
8	0	0	0	0	508	0	467	318	0	35	
9	0	0	0	0	508	0	467	318	0	35	
10	0	0	0	0	508	0	467	316	0	34	
11	0	0	0	0	508	0	467	318	0	35	
12	0	0	0	0	508	0	467	318	0	34	
13	0	0	0	0	508	0	467	318	0	35	
14	0	0	0	0	508	0	467	318	0	35	
15	0	0	0	0	508	0	467	318	0	35	
0	0	0	0	0	508	0	467	318	0	35	
1	0	0	0	0	508	0	467	318	0	34	
2	0	0	0	0	508	0	467	318	0	35	
3	0	0	0	0	508	0	467	318	0	35	
4	0	0	0	0	508	0	467	318	0	35	
5	0	0	0	0	508	0	467	318	0	35	
6	0	0	0	0	508	0	467	318	0	34	
7	0	0	0	0	508	0	467	318	0	35	
8	0	0	0	0	508	0	467	318	0	35	
9	0	0	0	0	508	0	467	318	0	35	
10	0	0	0	0	508	0	467	318	0	35	
11	0	0	0	0	508	0	470	318	0	34	
12	0	0	0	0	508	0	470	318	0	35	
13	0	0	0	0	508	0	472	318	0	35	
14	0	0	0	0	508	0	472	318	0	35	
15	0	0	0	0	508	0	472	318	0	35	
0	0	0	0	0	508	0	472	318	0	34	
1	0	0	0	0	508	0	472	318	0	35	
2	0	0	0	0	508	0	472	318	0	35	
3	0	0	0	0	508	0	472	318	0	35	
4	0	0	0	0	508	0	472	318	0	35	
5	0	0	0	0	508	0	472	318	0	34	
6	0	0	0	0	508	0	472	318	0	35	
7	0	0	0	0	508	0	472	318	0	35	
8	0	0	0	0	508	0	472	318	0	35	
9	0	0	0	0	508	0	472	318	0	35	
10	0	0	0	0	508	0	472	318	0	34	
11	0	0	0	0	508	0	472	318	0	35	
12	0	0	0	0	508	0	472	318	0	35	
13	0	0	0	0	508	0	472	318	0	35	
14	0	0	0	0	508	0	472	318	0	35	
15	0	0	0	0	508	0	470	318	0	34	
0	0	0	0	0	508	0	470	318	0	35	
1	0	0	0	0	508	0	472	318	0	35	
2	0	0	0	0	508	0	472	318	0	35	
3	0	0	0	0	508	0	472	318	0	35	
4	0	0	0	0	508	0	472	318	0	34	
5	0	0	0	0	508	0	472	318	0	35	
6	0	0	0	0	508	0	472	318	0	35	
7	0	0	0	0	508	0	472	318	0	35	
8	0	0	0	0	508	0	472	318	0	35	
9	0	0	0	0	508	0	473	318	0	34	
10	0	0	0	0	508	0	476	318	0	35	
11	0	0	0	0	508	0	476	318	0	35	
12	0	0	0	0	508	0	476	318	0	34	
13	0	0	0	0	508	0	476	318	0	34	
14	0	0	0	0	508	0	476	318	0	34	
15	0	0	0	0	508	0	476	318	0	34	
0	0	0	0	0	508	0	476	318	0	35	
1	0	0	0	0	508	0	476	318	0	34	
2	0	0	0	0	508	0	476	318	0	34	
3	0	0	0	0	508	0	476	318	0	34	
4	0	0	0	0	508	0	476	318	0	34	
5	0	0	0	0	508	0	473	318	0	35	
6	0	0	0	0	508	0	472	318	0	34	
7	0	0	0	0	508	0	472	318	0	34	
8	0	0	0	0	508	0	472	318	0	34	
9	0	0	0	0	508	0	472	318	0	34	
10	0	0	0	0	508	0	472	318	0	35	
11	0	0	0	0	508	0	472	318	0	34	
12	0	0	0	0	508	0	472	318	0	34	
13	0	0	0	0	508	0	472	316	0	34	
14	0	0	0	0	508	0	472	318	0	34	
15	0	0	0	0	508	0	472	318	0	35	
0	0	0	0	0	508	0	472	318	0	34	
1	0	0	0	0	508	0	472	318	0	34	
2	0	0	0	0	508	0	473	318	0	34	
3	0	0	0	0	508	0	473	318	0	34	
4	0	0	0	0	508	0	476	318	0	35	
5	0	0	0	0	508	0	476	318	0	34	
6	0	0	0	0	508	0	476	318	0	34	
7	0	0	0	0	508	0	476	318	0	34	
8	0	0	0	0	508	0	476	318	0	35	
9	0	0	0	0	508	0	476	318	0	35	
10	0	0	0	0	508	0	478	318	0	34	
11	0	0	0	0	508	0	478	318	0	35	
12	0	0	0	0	508	0	478	318	0	34	
13	0	0	0	0	508	0	478	318	0	35	
14	0	0	0	0	508	0	478	318	0	35	
15	0	0	0	0	508	0	476	318	0	35	
0	0	0	0	0	508	0	476	318	0	35	
1	0	0	0	0	508	0	476	318	0	34	
2	0	0	0	0	508	0	476	318	0	35	
3	0	0	0	0	508	0	476	318	0	35	
4	0	0	0	0	508	0	476	318	0	35	
5	0	0	0	0	508	0	473	318	0	35	
6	0	0	0	0	508	0	473	318	0	34	
7	0	0	0	0	508	0	473	318	0	35	
8	0	0	0	0	508	0	473	318	0	35	
9	0	0	0	0	508	0	473	318	0	35	
10	0	0	0	0	508	0	473	318	0	35	
11	0	0	0	0	508	0	473	318	0	34	
12	0	0	0	0	508	0	473	318	0	35	
13	0	0	0	0	508	0	473	318	0	35	
14	0	0	0	0	508	0	473	318	0	35	
15	0	0	0	0	508	0	473	318	0	35	
0	0	0	0	0	508	0	473	318	0	34	
1	0	0	0	0	508	0	472	318	0	35	
2	0	0	0	0	508	0	472	318	0	35	
3	0	0	0	0	508	0	472	318	0	35	
4	0	0	0	0	508	0	472	318	0	35	
5	0	0	0	0	508	0	472	318	0	34	
6	0	0	0	0	508	0	472	318	0	35	
7	0	0	0	0	508	0	472	318	0	34	
8	0	0	0	0	508	0	472	318	0	34	
9	0	0	0	0	508	0	472	318	0	34	
10	0	0	0	0	508	0	473	318	0	34	
11	0	0	0	0	508	0	473	318	0	35	
12	0	0	0	0	508	0	476	318	0	34	
13	0	0	0	0	508	0	476	318	0	35	
14	0	0	0	0	508	0	476	318	0	35	
15	0	0	0	0	508	0	476	318	0	34	
0	0	0	0	0	508	0	476	318	0	35	
1	0	0	0	0	508	0	476	318	0	34	
2	0	0	0	0	508	0	476	318	0	35	
3	0	0	0	0	508	0	476	318	0	35	
4	0	0	0	0	508	0	476	318	0	34	
5	0	0	0	0	508	0	476	318	0	35	
6	0	0	0	0	508	0	476	318	0	35	
7	0	0	0	0	508	0	476	318	0	34	
8	0	0	0	0	508	0	476	318	0	34	
9	0	0	0	0	508	0	476	318	0	34	
10	0	0	0	0	508	0	476	318	0	35	
11	0	0	0	0	508	0	476	318	0	35	
12	0	0	0	0	508	0	476	318	0	35	
13	0	0	0	0	508	0	476	318	0	35	
14	0	0	0	0	508	0	476	318	0	34	
15	0	0	0	0	508	0	476	318	0	35	
0	0	0	0	0	508	0	476	318	0	34	
1	0	0	0	0	508	0	478	318	0	35	
2	0	0	0	0	508	0	478	318	0	34	
3	0	0	0	0	508	0	478	318	0	34	
4	0	0	0	0	508	0	478	318	0	35	
5	0	0	0	0	508	0	478	318	0	35	
6	0	0	0	0	508	0	478	318	0	34	
7	0	0	0	0	508	0	476	318	0	35	
8	0	0	0	0	508	0	476	318	0	34	
9	0	0	0	0	508	0	476	318	0	35	
10	0	0	0	0	508	0	476	318	0	35	
11	0	0	0	0	508	0	476	318	0	34	
12	0	0	0	0	508	0	476	318	0	34	
13	0	0	0	0	508	0	473	318	0	34	
14	0	0	0	0	508	0	473	318	0	35	
15	0	0	0	0	508	0	473	318	0	35	
0	0	0	0	0	508	0	472	318	0	34	
1	0	0	0	0	508	0	472	318	0	34	
2	0	0	0	0	508	0	472	318	0	34	
3	0	0	0	0	508	0	472	318	0	35	
4	0	0	0	0	508	0	473	318	0	34	
5	0	0	0	0	508	0	473	318	0	35	
6	0	0	0	0	508	0	476	318	0	35	
7	0	0	0	0	508	0	476	318	0	34	
8	0	0	0	0	508	0	476	318	0	35	
9	0	0	0	0	508	0	476	318	0	35	
10	0	0	0	0	508	0	478	318	0	34	
11	0	0	0	0	508	0	478	318	0	35	
12	0	0	0	0	508	0	478	318	0	34	
13	0	0	0	0	508	0	480	318	0	35	
14	0	0	0	0	508	0	480	318	0	35	
15	0	0	0	0	508	0	478	318	0	35	
0	0	0	0	0	508	0	478	318	0	35	
1	0	0	0	0	508	0	478	318	0	34	
2	0	0	0	0	508	0	476	318	0	35	
3	0	0	0	0	508	0	476	318	0	35	
4	0	0	0	0	508	0	476	318	0	35	
5	0	0	0	0	508	0	476	318	0	35	
6	0	0	0	0	508	0	476	318	0	34	
7	0	0	0	0	508	0	473	318	0	35	
8	0	0	0	0	508	0	473	318	0	35	
9	0	0	0	0	508	0	473	318	0	35	
10	0	0	0	0	508	0	473	318	0	35	
11	0	0	0	0	508	0	476	318	0	34	
12	0	0	0	0	508	0	476	318	0	35	
13	0	0	0	0	508	0	476	318	0	35	
14	0	0	0	0	508	0	476	318	0	35	
15	0	0	0	0	508	0	476	318	0	35	
0	0	0	0	0	508	0	476	318	0	34	
1	0	0	0	0	508	0	476	318	0	35	
2	0	0	0	0	508	0	476	318	0	35	
3	0	0	0	0	508	0	476	318	0	35	
4	0	0	0	0	508	0	476	318	0	35	
5	0	0	0	0	508	0	476	318	0	34	
6	0	0	0	0	508	0	476	318	0	34	
7	0	0	0	0	508	0	476	318	0	35	
8	0	0	0	0	508	0	476	318	0	34	
9	0	0	0	0	508	0	476	318	0	34	
10	0	0	0	0	508	0	476	318	0	34	
11	0	0	0	0	508	0	476	318	0	34	
12	0	0	0	0	508	0	476	318	0	35	
13	0	0	0	0	508	0	476	318	0	34	
14	0	0	0	0	508	0	476	318	0	34	
15	0	0	0	0	508	0	476	318	0	34	
0	0	0	0	0	508	0	478	318	0	34	
1	0	0	0	0	508	0	480	318	0	35	
2	0	0	0	0	508	0	480	318	0	34	
3	0	0	0	0	508	0	480	318	0	34	
4	0	0	0	0	508	0	480	318	0	34	
5	0	0	0	0	508	0	480	318	0	34	
6	0	0	0	0	508	0	480	318	0	35	
7	0	0	0	0	508	0	480	318	0	34	
8	0	0	0	0	508	0	480	318	0	34	
9	0	0	0	0	508	0	480	318	0	34	
10	0	0	0	0	508	0	480	318	0	34	
11	0	0	0	0	508	0	478	318	0	35	
12	0	0	0	0	508	0	476	318	0	34	
13	0	0	0	0	508	0	476	318	0	34	
14	0	0	0	0	508	0	476	318	0	34	
15	0	0	0	0	508	0	473	318	0	34	
0	0	0	0	0	508	0	473	318	0	35	
1	0	0	0	0	508	0	473	318	0	34	
2	0	0	0	0	508	0	473	318	0	35	
3	0	0	0	0	508	0	473	318	0	34	
4	0	0	0	0	508	0	476	318	0	35	
5	0	0	0	0	508	0	476	318	0	35	
6	0	0	0	0	508	0	476	318	0	35	
7	0	0	0	0	508	0	476	318	0	35	
8	0	0	0	0	508	0	478	318	0	34	
9	0	0	0	0	508	0	480	316	0	35	
10	0	0	0	0	508	0	480	318	0	35	
11	0	0	0	0	508	0	480	318	0	35	
12	0	0	0	0	508	0	480	318	0	35	
13	0	0	0	0	508	0	480	318	0	34	
14	0	0	0	0	508	0	480	318	0	35	
15	0	0	0	0	508	0	480	318	0	35	
0	0	0	0	0	508	0	480	318	0	35	
1	0	0	0	0	508	0	480	318	0	34	
2	0	0	0	0	508	0	480	318	0	34	
3	0	0	0	0	508	0	481	318	0	35	
4	0	0	0	0	508	0	481	318	0	35	
5	0	0	0	0	508	0	483	318	0	35	
6	0	0	0	0	508	0	483	318	0	35	
7	0	0	0	0	508	0	486	318	0	34	
8	0	0	0	0	508	0	487	318	0	35	
9	0	0	0	0	508	0	487	318	0	35	
10	0	0	0	0	508	0	487	318	0	35	
11	0	0	0	0	508	0	487	318	0	35	
12	0	0	0	0	508	0	487	318	0	34	
13	0	0	0	0	508	0	487	318	0	35	
14	0	0	0	0	508	0	487	318	0	35	
15	0	0	0	0	508	0	486	318	0	35	
0	0	0	0	0	508	0	483	318	0	35	
1	0	0	0	0	508	0	483	318	0	34	
2	0	0	0	0	508	0	483	318	0	35	
3	0	0	0	0	508	0	481	318	0	34	
4	0	0	0	0	508	0	481	318	0	35	
5	0	0	0	0	508	0	480	318	0	34	
6	0	0	0	0	508	0	480	318	0	34	
7	0	0	0	0	508	0	480	318	0	35	
8	0	0	0	0	508	0	480	318	0	34	
9	0	0	0	0	508	0	480	318	0	35	
10	0	0	0	0	508	0	480	318	0	35	
11	0	0	0	0	508	0	481	318	0	34	
12	0	0	0	0	508	0	481	318	0	35	
13	0	0	0	0	508	0	481	318	0	34	
14	0	0	0	0	508	0	481	318	0	35	
15	0	0	0	0	508	0	481	318	0	35	
0	0	0	0	0	508	0	483	318	0	34	
1	0	0	0	0	508	0	483	318	0	35	
2	0	0	0	0	508	0	483	318	0	35	
3	0	0	0	0	508	0	483	318	0	34	
4	0	0	0	0	508	0	483	318	0	35	
5	0	0	0	0	508	0	481	318	0	34	
6	0	0	0	0	508	0	481	318	0	35	
7	0	0	0	0	508	0	481	318	0	35	
8	0	0	0	0	508	0	481	318	0	35	
9	0	0	0	0	508	0	483	318	0	35	
10	0	0	0	0	508	0	483	318	0	34	
11	0	0	0	0	508	0	483	318	0	35	
12	0	0	0	0	508	0	483	318	0	35	
13	0	0	0	0	508	0	483	318	0	35	
14	0	0	0	0	508	0	483	318	0	35	
15	0	0	0	0	508	0	483	318	0	34	
0	0	0	0	0	508	0	483	318	0	35	
1	0	0	0	0	508	0	483	318	0	35	
2	0	0	0	0	508	0	483	318	0	35	
3	0	0	0	0	508	0	483	318	0	35	
4	0	0	0	0	508	0	483	318	0	34	
5	0	0	0	0	508	0	483	318	0	35	
6	0	0	0	0	508	0	483	318	0	35	
7	0	0	0	0	508	0	483	318	0	35	
8	0	0	0	0	508	0	481	318	0	35	
9	0	0	0	0	508	0	481	318	0	34	
10	0	0	0	0	508	0	480	318	0	35	
11	0	0	0	0	508	0	480	318	0	35	
12	0	0	0	0	508	0	480	318	0	35	
13	0	0	0	0	508	0	480	318	0	35	
14	0	0	0	0	508	0	480	318	0	34	
15	0	0	0	0	508	0	478	318	0	34	
0	0	0	0	0	508	0	478	318	0	35	
1	0	0	0	0	508	0	476	318	0	34	
2	0	0	0	0	508	0	476	318	0	34	
3	0	0	0	0	508	0	476	318	0	34	
4	0	0	0	0	508	0	476	318	0	34	
5	0	0	0	0	508	0	478	318	0	35	
6	0	0	0	0	508	0	480	318	0	34	
7	0	0	0	0	508	0	480	318	0	34	
8	0	0	0	0	508	0	480	318	0	34	
9	0	0	0	0	508	0	480	318	0	34	
10	0	0	0	0	508	0	481	318	0	35	
11	0	0	0	0	508	0	483	318	0	34	
12	0	0	0	0	508	0	483	318	0	35	
13	0	0	0	0	508	0	483	318	0	34	
14	0	0	0	0	508	0	483	318	0	35	
15	0	0	0	0	508	0	486	316	0	35	
0	0	0	0	0	508	0	486	318	0	35	
1	0	0	0	0	508	0	486	318	0	35	
2	0	0	0	0	508	0	486	318	0	34	
3	0	0	0	0	508	0	483	318	0	35	
4	0	0	0	0	508	0	483	316	0	35	
5	0	0	0	0	508	0	483	316	0	35	
6	0	0	0	0	508	0	483	318	0	35	
7	0	0	0	0	508	0	481	318	0	34	
8	0	0	0	0	508	0	481	318	0	35	
9	0	0	0	0	508	0	480	318	0	35	
10	0	0	0	0	508	0	480	318	0	35	
11	0	0	0	0	508	0	480	318	0	35	
12	0	0	0	0	508	0	480	318	0	34	
13	0	0	0	0	508	0	480	318	0	35	
14	0	0	0	0	508	0	480	318	0	35	
15	0	0	0	0	508	0	480	318	0	35	
0	0	0	0	0	508	0	481	318	0	35	
1	0	0	0	0	508	0	481	318	0	34	
2	0	0	0	0	508	0	483	318	0	35	
3	0	0	0	0	508	0	483	318	0	35	
4	0	0	0	0	508	0	483	318	0	35	
5	0	0	0	0	508	0	483	318	0	35	
6	0	0	0	0	508	0	486	318	0	34	
7	0	0	0	0	508	0	486	318	0	35	
8	0	0	0	0	508	0	487	318	0	35	
9	0	0	0	0	508	0	487	318	0	35	
10	0	0	0	0	508	0	487	318	0	35	
11	0	0	0	0	508	0	487	318	0	34	
12	0	0	0	0	508	0	487	318	0	35	
13	0	0	0	0	508	0	487	318	0	35	
14	0	0	0	0	508	0	487	318	0	35	
15	0	0	0	0	508	0	487	318	0	35	
0	0	0	0	0	508	0	487	318	0	34	
1	0	0	0	0	508	0	487	318	0	35	
2	0	0	0	0	508	0	487	318	0	35	
3	0	0	0	0	508	0	487	318	0	35	
4	0	0	0	0	508	0	487	318	0	35	
5	0	0	0	0	508	0	487	318	0	34	
6	0	0	0	0	508	0	487	318	0	35	
7	0	0	0	0	508	0	487	318	0	35	
8	0	0	0	0	508	0	487	318	0	35	
9	0	0	0	0	508	0	487	318	0	35	
10	0	0	0	0	508	0	487	318	0	34	
11	0	0	0	0	508	0	487	318	0	35	
12	0	0	0	0	508	0	487	318	0	35	
13	0	0	0	0	508	0	487	318	0	35	
14	0	0	0	0	508	0	487	318	0	35	
15	0	0	0	0	508	0	487	318	0	34	
0	0	0	0	0	508	0	487	318	0	35	
1	0	0	0	0	508	0	487	318	0	34	
2	0	0	0	0	508	0	489	318	0	35	
3	0	0	0	0	508	0	492	318	0	35	
4	0	0	0	0	508	0	492	318	0	34	
5	0	0	0	0	508	0	494	318	0	35	
6	0	0	0	0	508	0	494	318	0	34	
7	0	0	0	0	508	0	496	318	0	35	
8	0	0	0	0	508	0	496	318	0	35	
9	0	0	0	0	508	0	496	318	0	34	
10	0	0	0	0	508	0	496	318	0	35	
11	0	0	0	0	508	0	496	318	0	34	
12	0	0	0	0	508	0	497	318	0	35	
13	0	0	0	0	508	0	497	316	0	35	
14	0	0	0	0	508	0	497	318	0	34	
15	0	0	0	0	508	0	497	318	0	35	
0	0	0	0	0	508	0	497	318	0	34	
1	0	0	0	0	508	0	497	318	0	35	
2	0	0	0	0	508	0	496	318	0	35	
3	0	0	0	0	508	0	496	318	0	34	
4	0	0	0	0	508	0	496	318	0	35	
5	0	0	0	0	508	0	496	318	0	34	
6	0	0	0	0	508	0	496	318	0	35	
7	0	0	0	0	508	0	494	318	0	35	
8	0	0	0	0	508	0	494	318	0	34	
9	0	0	0	0	508	0	494	318	0	35	
10	0	0	0	0	508	0	494	318	0	35	
11	0	0	0	0	508	0	495	318	0	34	
12	0	0	0	0	508	0	496	318	0	35	
13	0	0	0	0	508	0	496	318	0	34	
14	0	0	0	0	508	0	496	318	0	35	
15	0	0	0	0	508	0	496	318	0	35	
0	0	0	0	0	508	0	497	318	0	35	
1	0	0	0	0	508	0	497	318	0	35	
2	0	0	0	0	508	0	499	318	0	34	
3	0	0	0	0	508	0	499	318	0	35	
4	0	0	0	0	508	0	499	318	0	35	
5	0	0	0	0	508	0	499	318	0	35	
6	0	0	0	0	508	0	499	318	0	35	
7	0	0	0	0	508	0	499	318	0	34	
8	0	0	0	0	508	0	499	318	0	35	
9	0	0	0	0	508	0	499	318	0	35	
10	0	0	0	0	508	0	499	318	0	35	
11	0	0	0	0	508	0	499	318	0	35	
12	0	0	0	0	508	0	499	318	0	34	
13	0	0	0	0	508	0	497	318	0	35	
14	0	0	0	0	508	0	497	318	0	35	
15	0	0	0	0	508	0	496	318	0	35	
0	0	0	0	0	508	0	496	318	0	34	
1	0	0	0	0	508	0	496	318	0	34	
2	0	0	0	0	508	0	496	318	0	35	
3	0	0	0	0	508	0	492	318	0	34	
4	0	0	0	0	508	0	492	318	0	35	
5	0	0	0	0	508	0	487	318	0	35	
6	0	0	0	0	508	0	487	318	0	34	
7	0	0	0	0	508	0	487	318	0	35	
8	0	0	0	0	508	0	483	318	0	34	
9	0	0	0	0	508	0	483	318	0	35	
10	0	0	0	0	508	0	481	318	0	34	
11	0	0	0	0	508	0	480	318	0	34	
12	0	0	0	0	508	0	480	318	0	35	
13	0	0	0	0	508	0	480	318	0	35	
14	0	0	0	0	508	0	480	318	0	34	
15	0	0	0	0	508	0	480	318	0	34	
0	0	0	0	0	508	0	478	318	0	34	
1	0	0	0	0	508	0	476	318	0	35	
2	0	0	0	0	508	0	476	318	0	35	
3	0	0	0	0	508	0	476	318	0	34	
4	0	0	0	0	508	0	476	318	0	35	
5	0	0	0	0	508	0	476	318	0	34	
6	0	0	0	0	508	0	476	318	0	35	
7	0	0	0	0	508	0	473	318	0	35	
8	0	0	0	0	508	0	476	318	0	35	
9	0	0	0	0	508	0	476	318	0	35	
10	0	0	0	0	508	0	476	318	0	34	
11	0	0	0	0	508	0	476	318	0	35	
12	0	0	0	0	508	0	476	318	0	35	
13	0	0	0	0	508	0	478	318	0	35	
14	0	0	0	0	508	0	480	318	0	35	
15	0	0	0	0	508	0	480	318	0	34	
0	0	0	0	0	508	0	480	318	0	35	
1	0	0	0	0	508	0	480	318	0	35	
2	0	0	0	0	508	0	480	318	0	35	
3	0	0	0	0	508	0	480	318	0	35	
4	0	0	0	0	508	0	480	318	0	34	
5	0	0	0	0	508	0	480	318	0	35	
6	0	0	0	0	508	0	480	318	0	35	
7	0	0	0	0	508	0	480	318	0	35	
8	0	0	0	0	508	0	480	318	0	35	
9	0	0	0	0	508	0	480	318	0	34	
10	0	0	0	0	508	0	480	318	0	35	
11	0	0	0	0	508	0	480	318	0	35	
12	0	0	0	0	508	0	478	318	0	35	
13	0	0	0	0	508	0	476	318	0	35	
14	0	0	0	0	508	0	476	318	0	34	
15	0	0	0	0	508	0	476	318	0	35	
0	0	0	0	0	508	0	473	318	0	34	
1	0	0	0	0	508	0	472	318	0	34	
2	0	0	0	0	508	0	472	318	0	34	
3	0	0	0	0	508	0	472	318	0	34	
4	0	0	0	0	508	0	472	318	0	35	
5	0	0	0	0	508	0	472	318	0	34	
6	0	0	0	0	508	0	472	318	0	35	
7	0	0	0	0	508	0	473	318	0	35	
8	0	0	0	0	508	0	473	318	0	34	
9	0	0	0	0	508	0	476	318	0	35	
10	0	0	0	0	508	0	476	318	0	34	
11	0	0	0	0	508	0	476	318	0	35	
12	0	0	0	0	508	0	476	318	0	34	
13	0	0	0	0	508	0	476	318	0	34	
14	0	0	0	0	508	0	476	318	0	34	
15	0	0	0	0	508	0	476	318	0	35	
0	0	0	0	0	508	0	476	318	0	34	
1	0	0	0	0	508	0	476	318	0	34	
2	0	0	0	0	508	0	478	318	0	34	
3	0	0	0	0	508	0	478	318	0	35	
4	0	0	0	0	508	0	480	318	0	35	
5	0	0	0	0	508	0	480	318	0	35	
6	0	0	0	0	508	0	480	318	0	35	
7	0	0	0	0	508	0	481	318	0	34	
8	0	0	0	0	508	0	483	318	0	35	
9	0	0	0	0	508	0	487	318	0	35	
10	0	0	0	0	508	0	492	318	0	35	
11	0	0	0	0	508	0	496	318	0	35	
12	0	0	0	0	508	0	497	318	0	34	
13	0	0	0	0	508	0	504	318	0	35	
14	0	0	0	0	508	0	508	318	0	35	
15	0	0	0	0	508	0	511	318	0	35	
0	0	0	0	0	508	0	515	318	0	35	
1	0	0	0	0	508	0	519	318	0	34	
2	0	0	0	0	508	0	524	318	0	35	
3	0	0	0	0	508	0	527	318	0	35	
4	0	0	0	0	508	0	534	318	0	35	
5	0	0	0	0	508	0	537	318	0	35	
6	0	0	0	0	508	0	543	318	0	34	
7	0	0	0	0	508	0	547	318	0	35	
8	0	0	0	0	508	0	551	318	0	35	
9	0	0	0	0	508	0	558	318	0	35	
10	0	0	0	0	508	0	563	316	0	35	
11	0	0	0	0	508	0	568	318	0	34	
12	0	0	0	0	508	0	574	318	0	35	
13	0	0	0	0	508	0	575	318	0	35	
14	0	0	0	0	508	0	583	318	0	35	
15	0	0	0	0	508	0	583	318	0	35	
0	0	0	0	0	508	0	588	318	0	34	
1	0	0	0	0	508	0	590	318	0	35	
2	0	0	0	0	508	0	590	318	0	34	
3	0	0	0	0	508	0	588	318	0	34	
4	0	0	0	0	508	0	583	318	0	35	
5	0	0	0	0	508	0	575	318	0	34	
6	0	0	0	0	508	0	574	318	0	35	
7	0	0	0	0	508	0	568	318	0	34	
8	0	0	0	0	508	0	558	318	0	34	
9	0	0	0	0	508	0	545	318	0	35	
10	0	0	0	0	508	0	536	318	0	34	
11	0	0	0	0	508	0	519	318	0	35	
12	0	0	0	0	508	0	504	318	0	35	
13	0	0	0	0	508	0	486	318	0	34	
14	0	0	0	0	508	0	467	318	0	34	
15	0	0	0	0	508	0	448	318	0	34	
0	0	0	0	0	508	0	432	318	0	35	
1	0	0	0	0	508	0	414	318	0	35	
2	0	0	0	0	508	0	399	318	0	34	
3	0	0	0	0	508	0	384	318	0	35	
4	0	0	0	0	508	0	374	318	0	34	
5	0	0	0	0	508	0	366	318	0	35	
6	0	0	0	0	508	0	359	318	0	35	
7	0	0	0	0	508	0	358	318	0	35	
8	0	0	0	0	508	0	359	318	0	35	
9	0	0	0	0	508	0	359	318	0	34	
10	0	0	0	0	508	0	368	318	0	35	
11	0	0	0	0	508	0	376	318	0	35	
12	0	0	0	0	508	0	387	318	0	35	
13	0	0	0	0	508	0	399	318	0	35	
14	0	0	0	0	508	0	414	318	0	34	
15	0	0	0	0	508	0	428	318	0	35	
0	0	0	0	0	508	0	440	318	0	35	
1	0	0	0	0	508	0	451	318	0	35	
2	0	0	0	0	508	0	463	318	0	35	
3	0	0	0	0	508	0	472	318	0	34	
4	0	0	0	0	508	0	480	318	0	35	
5	0	0	0	0	508	0	487	318	0	35	
6	0	0	0	0	508	0	492	318	0	35	
7	0	0	0	0	508	0	496	318	0	35	
8	0	0	0	0	508	0	496	318	0	34	
9	0	0	0	0	508	0	497	318	0	35	
10	0	0	0	0	508	0	496	318	0	35	
11	0	0	0	0	508	0	496	318	0	35	
12	0	0	0	0	508	0	496	318	0	35	
13	0	0	0	0	508	0	494	318	0	34	
14	0	0	0	0	508	0	492	318	0	35	
15	0	0	0	0	508	0	489	318	0	34	
0	0	0	0	0	508	0	487	318	0	35	
1	0	0	0	0	508	0	487	318	0	34	
2	0	0	0	0	508	0	486	318	0	34	
3	0	0	0	0	508	0	483	318	0	35	
4	0	0	0	0	508	0	483	318	0	34	
5	0	0	0	0	508	0	481	318	0	35	
6	0	0	0	0	508	0	481	318	0	35	
7	0	0	0	0	508	0	480	318	0	34	
8	0	0	0	0	508	0	480	318	0	35	
9	0	0	0	0	508	0	480	318	0	35	
10	0	0	0	0	508	0	480	318	0	35	
11	0	0	0	0	508	0	480	318	0	35	
12	0	0	0	0	508	0	480	318	0	34	
13	0	0	0	0	508	0	480	318	0	35	
14	0	0	0	0	508	0	480	318	0	35	
15	0	0	0	0	508	0	480	318	0	35	
0	0	0	0	0	508	0	480	318	0	35	
1	0	0	0	0	508	0	480	318	0	34	
2	0	0	0	0	508	0	480	318	0	35	
3	0	0	0	0	508	0	480	318	0	35	
4	0	0	0	0	508	0	480	318	0	34	
5	0	0	0	0	508	0	480	318	0	34	
6	0	0	0	0	508	0	480	318	0	34	
7	0	0	0	0	508	0	480	318	0	34	
8	0	0	0	0	508	0	480	318	0	35	
9	0	0	0	0	508	0	480	318	0	34	
10	0	0	0	0	508	0	480	318	0	34	
11	0	0	0	0	508	0	480	318	0	34	
12	0	0	0	0	508	0	478	318	0	35	
13	0	0	0	0	508	0	478	318	0	34	
14	0	0	0	0	508	0	478	318	0	35	
15	0	0	0	0	508	0	480	318	0	35	
0	0	0	0	0	508	0	480	318	0	34	
1	0	0	0	0	508	0	480	318	0	35	
2	0	0	0	0	508	0	480	318	0	35	
3	0	0	0	0	508	0	480	318	0	34	
4	0	0	0	0	508	0	481	318	0	35	
5	0	0	0	0	508	0	483	318	0	34	
6	0	0	0	0	508	0	483	318	0	35	
7	0	0	0	0	508	0	483	318	0	35	
8	0	0	0	0	508	0	486	318	0	35	
9	0	0	0	0	508	0	486	318	0	35	
10	0	0	0	0	508	0	487	318	0	34	
11	0	0	0	0	508	0	487	318	0	35	
12	0	0	0	0	508	0	487	318	0	35	
13	0	0	0	0	508	0	487	318	0	35	
14	0	0	0	0	508	0	487	318	0	35	
15	0	0	0	0	508	0	486	318	0	34	
0	0	0	0	0	508	0	486	318	0	35	
1	0	0	0	0	508	0	486	318	0	35	
2	0	0	0	0	508	0	483	318	0	35	
3	0	0	0	0	508	0	483	318	0	35	
4	0	0	0	0	508	0	483	318	0	34	
5	0	0	0	0	508	0	483	318	0	35	
6	0	0	0	0	508	0	483	318	0	35	
7	0	0	0	0	508	0	483	318	0	35	
8	0	0	0	0	508	0	483	318	0	35	
9	0	0	0	0	508	0	483	318	0	34	
10	0	0	0	0	508	0	483	318	0	35	
11	0	0	0	0	508	0	483	318	0	35	
12	0	0	0	0	508	0	481	318	0	35	
13	0	0	0	0	508	0	481	318	0	35	
14	0	0	0	0	508	0	481	318	0	34	
15	0	0	0	0	508	0	481	318	0	35	
0	0	0	0	0	508	0	481	318	0	35	
1	0	0	0	0	508	0	481	318	0	35	
2	0	0	0	0	508	0	481	318	0	35	
3	0	0	0	0	508	0	481	318	0	34	
4	0	0	0	0	508	0	481	318	0	35	
5	0	0	0	0	508	0	483	318	0	35	
6	0	0	0	0	508	0	483	318	0	35	
7	0	0	0	0	508	0	483	318	0	35	
8	0	0	0	0	508	0	483	318	0	34	
9	0	0	0	0	508	0	483	318	0	35	
10	0	0	0	0	508	0	483	318	0	35	
11	0	0	0	0	508	0	483	318	0	35	
12	0	0	0	0	508	0	483	318	0	35	
13	0	0	0	0	508	0	483	318	0	34	
14	0	0	0	0	508	0	483	318	0	35	
15	0	0	0	0	508	0	483	318	0	35	
0	0	0	0	0	508	0	483	318	0	35	
1	0	0	0	0	508	0	483	318	0	35	
2	0	0	0	0	508	0	483	318	0	34	
3	0	0	0	0	508	0	486	318	0	35	
4	0	0	0	0	508	0	486	318	0	35	
5	0	0	0	0	508	0	486	318	0	35	
6	0	0	0	0	508	0	486	318	0	35	
7	0	0	0	0	508	0	487	318	0	34	
8	0	0	0	0	508	0	487	318	0	35	
9	0	0	0	0	508	0	487	318	0	35	
10	0	0	0	0	508	0	487	318	0	35	
11	0	0	0	0	508	0	487	318	0	35	
12	0	0	0	0	508	0	487	318	0	34	
13	0	0	0	0	508	0	487	318	0	35	
14	0	0	0	0	508	0	487	318	0	35	
15	0	0	0	0	508	0	487	318	0	35	
0	0	0	0	0	508	0	489	318	0	35	
1	0	0	0	0	508	0	489	318	0	34	
2	0	0	0	0	508	0	492	318	0	35	
3	0	0	0	0	508	0	492	318	0	35	
4	0	0	0	0	508	0	492	318	0	35	
5	0	0	0	0	508	0	492	318	0	35	
6	0	0	0	0	508	0	492	318	0	34	
7	0	0	0	0	508	0	492	318	0	35	
8	0	0	0	0	508	0	492	318	0	34	
9	0	0	0	0	508	0	492	318	0	34	
10	0	0	0	0	508	0	492	318	0	35	
11	0	0	0	0	508	0	492	318	0	34	
12	0	0	0	0	508	0	492	318	0	35	
13	0	0	0	0	508	0	494	318	0	34	
14	0	0	0	0	508	0	494	318	0	35	
15	0	0	0	0	508	0	494	318	0	35	
0	0	0	0	0	508	0	494	318	0	34	
1	0	0	0	0	508	0	494	318	0	35	
2	0	0	0	0	508	0	494	316	0	34	
3	0	0	0	0	508	0	494	318	0	34	
4	0	0	0	0	508	0	494	318	0	35	
5	0	0	0	0	508	0	494	318	0	34	
6	0	0	0	0	508	0	494	318	0	35	
7	0	0	0	0	508	0	494	318	0	34	
8	0	0	0	0	508	0	494	318	0	35	
9	0	0	0	0	508	0	494	318	0	35	
10	0	0	0	0	508	0	494	318	0	34	
11	0	0	0	0	508	0	494	318	0	35	
12	0	0	0	0	508	0	494	318	0	34	
13	0	0	0	0	508	0	496	318	0	35	
14	0	0	0	0	508	0	496	318	0	35	
15	0	0	0	0	508	0	496	318	0	34	
0	0	0	0	0	508	0	496	318	0	35	
1	0	0	0	0	508	0	496	318	0	35	
2	0	0	0	0	508	0	496	318	0	34	
3	0	0	0	0	508	0	496	318	0	34	
4	0	0	0	0	508	0	497	318	0	34	
5	0	0	0	0	508	0	497	318	0	34	
6	0	0	0	0	508	0	497	318	0	35	
7	0	0	0	0	508	0	499	318	0	34	
8	0	0	0	0	508	0	499	318	0	34	
9	0	0	0	0	508	0	499	318	0	34	
10	0	0	0	0	508	0	504	318	0	35	
11	0	0	0	0	508	0	504	318	0	35	
12	0	0	0	0	508	0	504	318	0	34	
13	0	0	0	0	508	0	504	318	0	34	
14	0	0	0	0	508	0	505	318	0	34	
15	0	0	0	0	508	0	508	318	0	35	
0	0	0	0	0	508	0	508	318	0	34	
1	0	0	0	0	508	0	508	318	0	35	
2	0	0	0	0	508	0	510	318	0	35	
3	0	0	0	0	508	0	510	318	0	34	
4	0	0	0	0	508	0	510	318	0	35	
5	0	0	0	0	508	0	510	318	0	35	
6	0	0	0	0	508	0	510	318	0	34	
7	0	0	0	0	508	0	510	318	0	34	
8	0	0	0	0	508	0	510	318	0	34	
9	0	0	0	0	508	0	510	318	0	34	
10	0	0	0	0	508	0	510	318	0	35	
11	0	0	0	0	508	0	510	318	0	34	
12	0	0	0	0	508	0	510	318	0	35	
13	0	0	0	0	508	0	511	318	0	34	
14	0	0	0	0	508	0	511	318	0	35	
15	0	0	0	0	508	0	511	316	0	35	
0	0	0	0	0	508	0	512	316	0	34	
1	0	0	0	0	508	0	513	318	0	35	
2	0	0	0	0	508	0	515	318	0	34	
3	0	0	0	0	508	0	515	318	0	35	
4	0	0	0	0	508	0	519	318	0	35	
5	0	0	0	0	508	0	519	318	0	35	
6	0	0	0	0	508	0	519	318	0	35	
7	0	0	0	0	508	0	521	318	0	34	
8	0	0	0	0	508	0	524	318	0	35	
9	0	0	0	0	508	0	524	318	0	35	
10	0	0	0	0	508	0	524	318	0	35	
11	0	0	0	0	508	0	524	318	0	35	
12	0	0	0	0	508	0	524	318	0	34	
13	0	0	0	0	508	0	524	318	0	35	
14	0	0	0	0	508	0	524	318	0	35	
15	0	0	0	0	508	0	524	318	0	35	
0	0	0	0	0	508	0	524	318	0	35	
1	0	0	0	0	508	0	524	318	0	34	
2	0	0	0	0	508	0	524	318	0	35	
3	0	0	0	0	508	0	524	318	0	35	
4	0	0	0	0	508	0	524	318	0	35	
5	0	0	0	0	508	0	524	318	0	35	
6	0	0	0	0	508	0	526	318	0	34	
7	0	0	0	0	508	0	526	318	0	35	
8	0	0	0	0	508	0	527	318	0	35	
9	0	0	0	0	508	0	527	318	0	35	
10	0	0	0	0	508	0	527	318	0	35	
11	0	0	0	0	508	0	529	318	0	34	
12	0	0	0	0	508	0	531	318	0	35	
13	0	0	0	0	508	0	531	318	0	35	
14	0	0	0	0	508	0	534	316	0	34	
15	0	0	0	0	508	0	536	318	0	34	
0	0	0	0	0	508	0	536	318	0	34	
1	0	0	0	0	508	0	536	318	0	34	
2	0	0	0	0	508	0	536	318	0	35	
3	0	0	0	0	508	0	536	318	0	34	
4	0	0	0	0	508	0	536	318	0	34	
5	0	0	0	0	508	0	536	318	0	34	
6	0	0	0	0	508	0	536	318	0	34	
7	0	0	0	0	508	0	534	318	0	35	
8	0	0	0	0	508	0	534	318	0	34	
9	0	0	0	0	508	0	531	318	0	34	
10	0	0	0	0	508	0	531	318	0	34	
11	0	0	0	0	508	0	531	318	0	34	
12	0	0	0	0	508	0	534	318	0	35	
13	0	0	0	0	508	0	534	318	0	34	
14	0	0	0	0	508	0	536	318	0	34	
15	0	0	0	0	508	0	536	318	0	34	
0	0	0	0	0	508	0	536	318	0	35	
1	0	0	0	0	508	0	536	318	0	35	
2	0	0	0	0	508	0	534	318	0	34	
3	0	0	0	0	508	0	534	318	0	35	
4	0	0	0	0	508	0	531	318	0	34	
5	0	0	0	0	508	0	531	318	0	35	
6	0	0	0	0	508	0	531	318	0	35	
7	0	0	0	0	508	0	529	318	0	35	
8	0	0	0	0	508	0	527	318	0	35	
9	0	0	0	0	508	0	527	318	0	34	
10	0	0	0	0	508	0	527	318	0	35	
11	0	0	0	0	508	0	526	318	0	35	
12	0	0	0	0	508	0	524	318	0	35	
13	0	0	0	0	508	0	524	318	0	35	
14	0	0	0	0	508	0	524	318	0	34	
15	0	0	0	0	508	0	519	318	0	35	
0	0	0	0	0	508	0	519	318	0	35	
1	0	0	0	0	508	0	519	318	0	35	
2	0	0	0	0	508	0	519	318	0	35	
3	0	0	0	0	508	0	519	318	0	34	
4	0	0	0	0	508	0	518	318	0	35	
5	0	0	0	0	508	0	515	318	0	35	
6	0	0	0	0	508	0	515	318	0	35	
7	0	0	0	0	508	0	513	318	0	35	
8	0	0	0	0	508	0	512	318	0	34	
9	0	0	0	0	508	0	511	318	0	35	
10	0	0	0	0	508	0	511	318	0	35	
11	0	0	0	0	508	0	510	318	0	35	
12	0	0	0	0	508	0	508	318	0	35	
13	0	0	0	0	508	0	505	318	0	34	
14	0	0	0	0	508	0	504	318	0	35	
15	0	0	0	0	508	0	504	318	0	34	
0	0	0	0	0	508	0	502	318	0	35	
1	0	0	0	0	508	0	499	318	0	35	
2	0	0	0	0	508	0	496	318	0	34	
3	0	0	0	0	508	0	496	318	0	35	
4	0	0	0	0	508	0	492	318	0	34	
5	0	0	0	0	508	0	489	318	0	35	
6	0	0	0	0	508	0	487	318	0	35	
7	0	0	0	0	508	0	487	318	0	34	
8	0	0	0	0	508	0	483	318	0	35	
9	0	0	0	0	508	0	481	318	0	34	
10	0	0	0	0	508	0	480	318	0	35	
11	0	0	0	0	508	0	480	318	0	35	
12	0	0	0	0	508	0	480	318	0	34	
13	0	0	0	0	508	0	478	318	0	35	
14	0	0	0	0	508	0	476	318	0	35	
15	0	0	0	0	508	0	476	318	0	34	
0	0	0	0	0	508	0	476	318	0	34	
1	0	0	0	0	508	0	476	318	0	34	
2	0	0	0	0	508	0	473	318	0	35	
3	0	0	0	0	508	0	473	318	0	35	
4	0	0	0	0	508	0	472	318	0	34	
5	0	0	0	0	508	0	472	318	0	35	
6	0	0	0	0	508	0	472	318	0	34	
